,Airplane.bmp,BARBARA.bmp,BOAT.bmp,BRIDGE.bmp,Building.bmp,Cameraman.bmp,girl.bmp,LAX.bmp,LENNA.bmp,Lighthouse.bmp,Text.bmp,WOMAN.bmp,
100.0,0.9964893445462998,0.9982141261290876,0.996448282150812,0.9994209962108038,0.9984441632719931,0.9958574572284098,0.9968065644075481,0.9986277972118808,0.9967006289015754,0.997481098481642,0.9986422056189985,0.9971340991695385,
88.88888888888889,0.9974458047151983,0.99870916545093,0.9974084682202184,0.9995382673066661,0.9988162977576359,0.9969691096080829,0.9976489270832228,0.9989993707717628,0.9976034535943425,0.9981173505603697,0.9989705672388416,0.9979206576927454,
80.0,0.9978374367292262,0.9989137732498689,0.9978150264393314,0.9995967164307829,0.998994905361717,0.9974617449546302,0.9980266035206011,0.9991623380626695,0.9979860692604542,0.9984017908765482,0.9991223805597677,0.9982477738792364,
72.72727272727273,0.9982121823693403,0.9990996910408503,0.998196749657898,0.9996551985234247,0.9991487237678963,0.9978924719987786,0.9983627179511242,0.9993058738655981,0.9983254863363589,0.9986612390791153,0.999257151006857,0.9985520847406267,
66.66666666666666,0.9984496022750055,0.9992172711108407,0.9984271933892588,0.999692692409942,0.9992555296303038,0.9981694485754151,0.9985668727204098,0.9993944795482779,0.9985460302211744,0.9988304414367307,0.9993486629083953,0.9987333662284623,
61.53846153846154,0.9985973405168082,0.9992995114666329,0.9985884834998342,0.9997183250837774,0.9993274353006658,0.9983511391359006,0.9987083714752951,0.9994547788199376,0.9986933292439951,0.9989387785425919,0.9994113899416299,0.9988584602502701,
57.14285714285714,0.9987246756415891,0.9993668297873288,0.9987138174981254,0.9997412150749608,0.9993831577214587,0.9984904434001913,0.9988196964063502,0.9995056754439632,0.99880713362185,0.9990303152195192,0.9994599327080543,0.9989652096502797,
53.333333333333336,0.9988371168589687,0.9994239391942389,0.9988320350769065,0.9997668601153216,0.9994408560277332,0.9986257729004431,0.9989213669061063,0.999554619980952,0.998924501644168,0.9991170329784987,0.9995109309376836,0.9990582983594777,
50.0,0.998924811138183,0.9994790900231926,0.9989214453487739,0.9997831799415353,0.9994863898927819,0.9987446283493453,0.9990247474888809,0.9995904380906258,0.9989928855227806,0.9991945514579849,0.9995530609394029,0.9991195375283856,
47.05882352941176,0.9990297454834369,0.9995192187443614,0.9990262184759762,0.9998042481847353,0.9995284628599177,0.9988529928682234,0.9991035750917675,0.9996218055962531,0.9990922139374051,0.9992615358506659,0.9995856504103147,0.999214587856628,
44.44444444444444,0.9991207222946881,0.999555372665703,0.9991134273901318,0.9998172970308268,0.9995653252527877,0.9989551185808186,0.9991834024240219,0.99965954455216,0.9991678771430677,0.9993218068318098,0.9996231469371146,0.9992865968071488,
42.10526315789473,0.9991969740936086,0.9996040350653639,0.999186417405822,0.9998292166827918,0.9996022452264348,0.9990479797709967,0.9992520251905628,0.9996840985444018,0.9992430699519623,0.9993874517059144,0.9996566052258243,0.9993438888325532,
40.0,0.9992575863351966,0.9996267450881974,0.9992554534003564,0.9998456775061126,0.9996343846409245,0.9991280961512546,0.9993157566408364,0.9997133963305523,0.9993102214566297,0.9994330145398289,0.9996813167091567,0.9993998976255695,
38.095238095238095,0.9993265792905153,0.9996674332004774,0.9993226617551921,0.9998611698092867,0.9996660778628086,0.9992148305829212,0.9993746045008638,0.9997400245419429,0.9993721448846978,0.9994867197955138,0.9997086606691312,0.9994588761718315,
36.36363636363637,0.9993814188851733,0.9996955411178914,0.9993840387427058,0.9998686923266676,0.9996966558408052,0.9992762424048368,0.9994308494090558,0.9997589828657573,0.9994257639664196,0.9995293455256073,0.9997361736288428,0.9994988577414665,
34.78260869565217,0.9994199753491061,0.9997114720755759,0.9994086772246483,0.9998754364652284,0.9997061083893869,0.9993100238474073,0.999455433510632,0.9997717926859022,0.9994573088320747,0.9995538200174219,0.9997484891560212,0.999525567741656,
33.33333333333333,0.9994388672760119,0.9997177446120954,0.9994381629377251,0.9998803896021498,0.9997206061015206,0.9993399418319042,0.9994816159430485,0.9997805810740118,0.9994816003191618,0.9995724265269815,0.9997562957547462,0.9995501144843568,
32.0,0.9994650383132747,0.9997319645734738,0.9994557587945496,0.9998848483273196,0.999733394806547,0.9993711800386667,0.9995033575328418,0.9997916520428929,0.9994953097747331,0.9995879446521254,0.9997686931353813,0.9995659763919449,
30.76923076923077,0.9994911611185808,0.9997475965378094,0.9994821685921352,0.9998899921193621,0.9997452552432025,0.9993933016076367,0.9995223936054133,0.9998024753214508,0.9995211901531812,0.9996020453406835,0.9997772536886989,0.9995877265472899,
29.629629629629626,0.9995048414617654,0.9997540943719293,0.9995054709089694,0.999895194810089,0.9997547965361164,0.9994256343622469,0.9995401839699752,0.9998098118313502,0.99954551941424,0.9996156705569325,0.999784801429873,0.9996010465099444,
28.57142857142857,0.999529463035801,0.9997580264876091,0.9995223229931924,0.9998983978961439,0.9997627672884497,0.9994416766207139,0.9995586311235976,0.9998170174545542,0.9995546644989869,0.9996317127832598,0.9997946905642328,0.9996165182824162,
27.586206896551722,0.9995437785170624,0.9997754758653553,0.9995421223625136,0.9999015562077164,0.9997744063724775,0.9994648508947052,0.9995740792806084,0.9998220411454428,0.9995765535018717,0.9996469283828249,0.9998020669982168,0.9996266660360532,
26.666666666666668,0.9995588620823769,0.9997773783744126,0.999551497661476,0.9999057603651405,0.9997783859737097,0.9994803371085126,0.9995899252173839,0.9998294981559355,0.9995954033489995,0.9996597926815131,0.9998075198729662,0.9996492505581575,
25.806451612903224,0.9995740533186266,0.9997860135191335,0.9995767423717522,0.9999090425808859,0.9997874936057746,0.9995045336798337,0.9996040028078315,0.999836718261379,0.9996079341107782,0.9996699578815569,0.9998139798611447,0.999659171041307,
25.0,0.9995825745855018,0.9998117432645074,0.9995730147306713,0.9999106325657365,0.9998012280966014,0.9995074494729767,0.9996184713524134,0.9998419144517433,0.999623280247313,0.9996848512561524,0.9998328167984558,0.9996616857084555,
24.242424242424242,0.9996046087204161,0.9998053236853214,0.9995974002971334,0.9999139465364464,0.9998024381380085,0.9995275058804324,0.9996300072847141,0.9998452792151585,0.9996309297324779,0.9996936518176328,0.9998263797339019,0.9996784371788956,
23.52941176470588,0.9996159940884629,0.9998099845385985,0.9996190431839674,0.9999179385689466,0.9998088376628769,0.9995478399701041,0.9996418454398228,0.999851723337867,0.9996401625729368,0.9997028332904779,0.9998292572505734,0.9996907687408559,
22.857142857142858,0.9996273404432244,0.9998147583804419,0.9996223935715927,0.9999201544287866,0.9998125324561095,0.9995612776815114,0.9996510298769267,0.9998551150585026,0.9996528352544232,0.9997102426381668,0.999834450094061,0.9996997412007038,
22.22222222222222,0.9996379495314791,0.9998194220825906,0.9996368660300052,0.9999214963880837,0.9998163562940252,0.99957176925885,0.9996601671374084,0.9998575491630207,0.9996637488873849,0.9997178286315206,0.9998439468371342,0.9996988615132649,
21.62162162162162,0.9996502053612866,0.9998264023232395,0.9996449332319449,0.9999244519395336,0.9998220338118752,0.9995879116396272,0.9996742150029735,0.9998626085701297,0.9996656764882973,0.9997304837147738,0.9998456573652227,0.9997161767476967,
21.052631578947366,0.9996566515684656,0.9998281345110982,0.9996585571520844,0.9999254547298733,0.9998277137124759,0.9995974134128955,0.9996803236161025,0.999864931023866,0.9996792327419851,0.9997336709008134,0.9998499707972404,0.9997260506145925,
20.51282051282051,0.9996683710440067,0.9998300140037185,0.9996698193241842,0.9999277137457997,0.9998338531844603,0.9996064399348661,0.9996922733119378,0.9998711737221012,0.9996876350872604,0.9997398138905754,0.9998517868691789,0.9997293322324575,
20.0,0.9996731023558767,0.9998433102828106,0.9996743004632482,0.9999306429648868,0.999834576510562,0.9996191253356,0.9996985370659633,0.9998730842038419,0.9996958946013842,0.9997472181574856,0.9998556165591125,0.9997342355937782,
19.51219512195122,0.999685188632964,0.9998446028609206,0.9996808476357305,0.9999326402973889,0.9998389156698573,0.9996282544895567,0.9997045669755747,0.9998772282504481,0.9997014945526566,0.9997531300738733,0.9998597267962087,0.9997374496027722,
19.047619047619047,0.999691177558012,0.9998423557710102,0.9996866527837223,0.999933514091885,0.9998447862497261,0.9996382821989549,0.9997149375992426,0.9998803939066765,0.9997159360636242,0.9997629785526597,0.9998630326912525,0.9997537400781255,
18.6046511627907,0.9996998702120942,0.9998516375968509,0.9996985026124288,0.9999349689467981,0.9998523578592938,0.9996479663709751,0.9997193512080074,0.999882978313318,0.9997201395714065,0.9997682992558754,0.9998689197748767,0.9997579026890804,
18.181818181818183,0.9997088130427527,0.9998555288149361,0.9997010840662915,0.9999362126632318,0.9998514718199922,0.9996537196016799,0.9997285030710021,0.9998845379213639,0.999726265945141,0.9997695945569322,0.9998691339327571,0.999762223574747,
17.77777777777778,0.9997128076910581,0.9998544971219012,0.9997125796586203,0.9999384206418309,0.9998537838605422,0.9996631007525824,0.9997366539740697,0.9998890701372987,0.9997325405680674,0.9997755864168618,0.9998746980563576,0.9997685747421232,
17.391304347826086,0.9997227591024396,0.9998591501296887,0.9997145843624634,0.9999390818293423,0.9998592705060696,0.9996700184896904,0.9997411748758529,0.9998905970700426,0.9997369252746168,0.999781708739881,0.9998768881233933,0.9997714262667388,
17.02127659574468,0.9997337123773866,0.9998598135358797,0.9997236666567466,0.9999410041584421,0.9998617466754766,0.9996813080306322,0.9997440763916567,0.999892413626662,0.9997409148951981,0.9997865074727257,0.9998810575581544,0.9997825425893798,
16.666666666666664,0.9997376408027583,0.9998662432954353,0.9997312539280302,0.9999416550282038,0.9998671573564897,0.9996871962963735,0.9997534808423372,0.9998984119907617,0.9997518153925459,0.9997953173548009,0.9998844253518405,0.9997805695068306,
16.3265306122449,0.9997404773236286,0.9998689669101091,0.999737677062277,0.9999441582942847,0.9998686485788092,0.9996955139526663,0.9997559715811789,0.9998986191397378,0.9997622972628637,0.9997992919711471,0.999883494016855,0.999786888532723,
16.0,0.9997444710042978,0.9998754290640207,0.9997461579118617,0.9999448866088434,0.9998709996078351,0.9997009444605108,0.9997659740547434,0.9999012534319314,0.9997640318040891,0.9998033129398405,0.9998884698658665,0.999794326271411,
15.686274509803921,0.9997545104972404,0.9998753486818638,0.9997510160471947,0.9999451085597442,0.9998757642575591,0.9997073422938231,0.999766207730947,0.999900705437656,0.9997656672867761,0.9998154360704506,0.999891300291578,0.9997993822658388,
15.384615384615385,0.9997588796568422,0.9998774192559741,0.9997508355215269,0.9999477748249662,0.9998754443649149,0.9997147723766393,0.9997720209761395,0.9999054098682668,0.9997736344304615,0.9998098384462392,0.999892277981769,0.9998011261522015,
15.09433962264151,0.9997613238015365,0.9998774695295463,0.9997606599915921,0.9999477716777457,0.9998796269238874,0.9997206461180238,0.9997812882739603,0.9999073989829859,0.9997763892115782,0.9998148169900404,0.9998959459531733,0.9998092602264516,
14.814814814814813,0.9997679086068773,0.99988455928469,0.9997652633901222,0.9999475827960552,0.999882101764114,0.9997255902608082,0.9997833166619089,0.9999107594753432,0.9997844855909204,0.9998172138370974,0.9998980393712229,0.9998095596596114,
14.545454545454545,0.9997717186865627,0.9998855399588437,0.9997684135146724,0.9999506734086024,0.9998839181355116,0.999731928381434,0.9997880959315059,0.999910496587318,0.9997893126222188,0.999821538224309,0.9999002236810219,0.9998175689936942,
14.285714285714285,0.9997779548657031,0.9998871189609612,0.9997731976201235,0.9999513105448818,0.9998861343360071,0.9997360754521869,0.9997908240686058,0.9999122845491918,0.9997866837009284,0.9998263984165701,0.9999018305439398,0.9998181818421843,
14.035087719298245,0.9997782215927933,0.9998904639192568,0.9997831988859434,0.9999528933565569,0.9998896851731843,0.9997440493507899,0.9997971903171733,0.9999145896994849,0.9997930729194197,0.9998268786941237,0.9999023162799154,0.9998222955300415,
13.793103448275861,0.9997823597326132,0.9998937994041313,0.9997758522517475,0.9999540741723477,0.9998902571593635,0.999747674699858,0.9997962529522438,0.9999138510901328,0.9997970739530555,0.9998313696454737,0.9999044536354346,0.9998212824862184,
13.559322033898304,0.9997867749750466,0.9998968585661896,0.9997832355672784,0.999954456512017,0.9998918330439139,0.9997470733450761,0.9998030731432856,0.9999184441936179,0.9998000663766783,0.999836093332326,0.9999065125961014,0.9998306299648406,
13.333333333333334,0.9997898216283887,0.9998927252172929,0.9997880829373262,0.9999541251989903,0.9998940150003709,0.9997569323751339,0.9998080810812663,0.9999176793647409,0.9998088555135899,0.9998363427038585,0.9999078654601863,0.999830392645059,
13.114754098360656,0.999796619576396,0.9998985935613173,0.9997975119870789,0.9999546820834372,0.9998982890335559,0.999760330781175,0.9998089164392604,0.9999203606901923,0.9998094750568893,0.99984169998448,0.999909671317404,0.9998379711429557,
12.903225806451612,0.9997971757637348,0.9998979559956408,0.9997958149980982,0.999956795223792,0.9998982696770287,0.9997624295543222,0.9998170371218521,0.999921990160817,0.9998116844223369,0.9998423654539094,0.999911246807908,0.9998352687703971,
12.698412698412698,0.9998040765657294,0.999901080018553,0.9997986651552623,0.999958167948028,0.9998984515329464,0.9997681396919814,0.9998161538780201,0.9999224342899794,0.9998157871746414,0.9998468406936319,0.9999122357826778,0.9998403044327655,
12.5,0.999794476771966,0.9999160319070238,0.9997794277268065,0.9999605015392057,0.9999119451188951,0.9997712037922842,0.9998235479140679,0.9999433768611935,0.9998145941650276,0.9998442932741393,0.9999206159570552,0.9998510804901296,
12.307692307692308,0.9998064419924625,0.9999033699291539,0.9998089636544054,0.9999592483291881,0.9999049935738592,0.9997782650936115,0.9998232809167938,0.9999275707475098,0.999824229986752,0.9998508220604669,0.9999129367443161,0.999843115420215,
12.121212121212121,0.9998120035220722,0.999905610881105,0.999812037575468,0.9999595409015759,0.9999056373394726,0.9997813319612407,0.9998267074294748,0.9999268253559869,0.9998242009220133,0.9998567379100491,0.9999167088166535,0.9998456297071409,
11.940298507462686,0.9998166529370687,0.9999113922945925,0.9998192740825262,0.9999603556882423,0.9999070403142281,0.9997836095555159,0.9998281490617492,0.9999285437645912,0.9998305881551253,0.9998576376240638,0.999918090155583,0.9998530972829655,
11.76470588235294,0.9998170432616679,0.999910470082935,0.9998211976668018,0.9999606351626054,0.9999088981107036,0.9997857669077286,0.9998320740558847,0.9999310717402949,0.9998340388768143,0.9998612273072831,0.9999189928352856,0.9998545699591807,
11.594202898550725,0.9998264505884402,0.9999078381579386,0.9998236013567403,0.9999623929375471,0.9999093569833605,0.9997951335681386,0.9998309666844412,0.9999298889355781,0.999833473063964,0.9998626388515665,0.9999226852117687,0.9998567549006383,
11.428571428571429,0.9998196375933183,0.9999146716470964,0.9998276300324698,0.9999604324568158,0.9999096848263384,0.9997988084193984,0.9998387285806634,0.999930337790473,0.9998336962278795,0.9998623211031028,0.9999238195229393,0.9998588122834442,
11.267605633802818,0.9998220115998981,0.9999145006470124,0.9998259040822989,0.9999629987855213,0.9999127788583348,0.9997975796583483,0.9998375537885312,0.9999343875259791,0.99983755475308,0.9998653281177187,0.9999221968047027,0.9998590191826745,
11.11111111111111,0.9998282270044201,0.9999132649740287,0.9998267801755399,0.9999622501217925,0.9999128618165679,0.9997993081919306,0.9998392141002845,0.9999345662084461,0.9998390266189966,0.9998662205441526,0.9999245932630567,0.9998621771165516,
10.95890410958904,0.9998345860435176,0.9999199194236873,0.999829180919949,0.9999639719272891,0.9999153565385567,0.9998065366301916,0.9998481329054126,0.9999339281109014,0.9998420155277836,0.9998668714866235,0.9999250650462655,0.9998589954905728,
10.81081081081081,0.9998309473267083,0.9999180044429851,0.9998343371680023,0.9999646747338805,0.9999164697109064,0.9998048733818803,0.9998456288845101,0.99993448751906,0.9998456157113994,0.9998710338568925,0.9999282760504693,0.9998655365639386,
10.666666666666668,0.9998360547048128,0.999919295294037,0.9998356632219404,0.9999658530990717,0.9999154837043308,0.9998076149371481,0.9998457379302914,0.9999361096328552,0.9998481517255898,0.9998718002449386,0.9999255466588867,0.9998636308006017,
10.526315789473683,0.9998403914147355,0.9999228081391411,0.9998349435870543,0.9999651872100871,0.9999193981114582,0.9998082384043632,0.9998498581267503,0.9999388549759675,0.9998546251568836,0.9998752824501707,0.9999273911562205,0.9998688801861694,
10.38961038961039,0.9998407615713867,0.9999163989339587,0.9998382741598449,0.9999645205170918,0.9999183113135751,0.9998130874730885,0.9998519076018161,0.9999382969115391,0.9998518867099148,0.9998772897746735,0.9999292580759909,0.9998720768964783,
10.256410256410255,0.9998433020892128,0.9999244644629316,0.9998438861388368,0.9999658076737241,0.9999206583859542,0.9998134364886578,0.9998512812670793,0.9999411990858574,0.9998571485523009,0.9998785024687786,0.99993113271878,0.9998736409329944,
10.126582278481013,0.9998443348509084,0.9999249849490348,0.9998505745632261,0.9999669668863822,0.9999239115682989,0.9998154066238031,0.999857431305605,0.9999412944621465,0.9998568348817967,0.999881240580475,0.999931466240659,0.9998723527029658,
10.0,0.9998465993149748,0.9999249500867765,0.9998473886846692,0.9999660359217201,0.9999259058656464,0.9998224876392761,0.9998572329250487,0.9999421351604525,0.9998611202955939,0.9998810037761929,0.9999340436687454,0.9998760047404337,
9.876543209876543,0.9998481060668809,0.999924709358475,0.9998462145963348,0.9999669669943697,0.9999243065134605,0.999822075178697,0.9998569765353288,0.999942842401768,0.999863366046191,0.9998818221549148,0.9999330169216146,0.9998808960139568,
9.75609756097561,0.9998532426620614,0.9999268580227497,0.9998516264093519,0.9999683870703965,0.9999258485512277,0.9998266284271446,0.9998648138351498,0.9999430918413346,0.9998568067372958,0.9998859827980868,0.9999349660943797,0.999877377568903,
9.63855421686747,0.9998532997454302,0.9999282187906553,0.9998543747066609,0.9999697185114248,0.9999253634383684,0.9998314515974768,0.9998639935797926,0.9999432254087606,0.9998598133337872,0.9998865107927181,0.9999349421450325,0.9998786118250513,
9.523809523809524,0.9998584608011998,0.9999281738989374,0.9998492363351904,0.9999694332453494,0.9999262932804746,0.9998328523628485,0.9998681546151432,0.9999445743743173,0.9998600006812994,0.999890033753103,0.9999362947981587,0.9998847292171874,
9.411764705882353,0.9998504306198587,0.999936674935095,0.9998552512294789,0.9999709282051811,0.9999291584110217,0.9998332904404925,0.99986230680394,0.9999416697156803,0.9998590853046879,0.9998873998426889,0.9999370363936904,0.9998868733219188,
9.30232558139535,0.9998630204114946,0.9999313188288977,0.9998561455989323,0.9999696125749633,0.9999323422053438,0.9998394627574595,0.9998750764950187,0.9999506637711888,0.9998721388846521,0.9998943339399292,0.9999377538940637,0.9998874587948764,
9.195402298850574,0.9998628068014804,0.9999347532482383,0.9998641335998923,0.9999708776546251,0.9999305421496749,0.9998398808706008,0.9998733977423517,0.9999476261206585,0.9998662363808025,0.9998920870114884,0.9999379967536939,0.9998866119724944,
9.090909090909092,0.9998651575041884,0.9999358201218347,0.9998614356107016,0.9999709540723544,0.9999312043312996,0.9998370924826985,0.9998737179654624,0.9999449725365016,0.9998716072151934,0.9998940581144957,0.999940269464662,0.9998878225251246,
8.98876404494382,0.9998666077556522,0.9999328289972121,0.9998629042422187,0.9999705025773511,0.9999315530983918,0.9998425508663539,0.9998784250642387,0.9999480442196902,0.9998756354767088,0.9998965414250104,0.9999410408676009,0.999895525387754,
8.88888888888889,0.9998678773700501,0.9999357246521846,0.9998727572491288,0.9999702353978653,0.9999330780490413,0.999841165591345,0.9998771350480724,0.999948033820127,0.9998745752996048,0.9998979723572601,0.9999418984951398,0.999894244892049,
8.791208791208792,0.9998731909285591,0.9999337187902956,0.9998652228753131,0.9999719015063903,0.9999339970334401,0.9998485712386165,0.999876593805086,0.999949321027257,0.9998795878742175,0.9998948554135435,0.9999419703740448,0.9998992014003798,
8.695652173913043,0.9998712575425295,0.9999349898739168,0.99987396233814,0.9999718307596079,0.999935294303854,0.9998472343335267,0.9998831541390512,0.999949686158901,0.9998808552375547,0.9998998274841158,0.999943012412955,0.9998957550350551,
8.60215053763441,0.9998737597489079,0.9999372574479662,0.9998719303571745,0.9999714440229726,0.9999349731080827,0.9998515301769937,0.9998833763162426,0.9999502681769256,0.999883169911885,0.9999011261929516,0.9999448061391238,0.9998989166641488,
8.51063829787234,0.9998759189619217,0.9999401861727663,0.9998756624573824,0.9999738575734862,0.9999356938085521,0.999850158342596,0.9998853814589452,0.9999508655219674,0.9998844438839339,0.9999035717724221,0.9999438354763124,0.9998961551942366,
8.421052631578947,0.999878504168882,0.999939502027464,0.9998792005652676,0.9999731625619126,0.9999375554183079,0.9998581144644403,0.9998880266821145,0.9999525812952778,0.9998876973961358,0.9999043691391163,0.9999472219698795,0.999902685833583,
8.333333333333332,0.9998807274695658,0.9999478145011454,0.999875191773185,0.9999735855066432,0.9999421776987243,0.9998573255476481,0.9998907777069551,0.9999538880231756,0.9998876851427484,0.9999054016105051,0.9999521504011692,0.9998995444628586,
8.24742268041237,0.9998792359397679,0.9999396398023562,0.9998811688129633,0.9999734287143875,0.9999381323123389,0.999857783898721,0.9998901654935707,0.9999540725802566,0.9998851173277788,0.9999075126682734,0.9999471194032867,0.9999050446380995,
8.16326530612245,0.9998843848897463,0.9999408445631475,0.9998826744453727,0.9999756060048092,0.9999421948641354,0.9998604009670119,0.9998928467901261,0.9999558433044077,0.9998873598997651,0.9999079780488352,0.9999480383043653,0.9999026907772957,
8.080808080808081,0.9998841744407065,0.9999438069364871,0.9998830724800867,0.9999748241931239,0.999941760976495,0.9998641904052118,0.9998910922734554,0.9999555794727044,0.999891995075154,0.9999089947454118,0.9999467178391465,0.9999065540953875,
8.0,0.9998859732774859,0.9999420345335535,0.9998834291161326,0.9999743374153032,0.9999416056489345,0.9998632640035227,0.9998919125305596,0.9999540485998893,0.9998937278035811,0.9999111938508084,0.9999503601160362,0.9999061505247091,
7.920792079207921,0.9998876829221345,0.9999474618050814,0.9998857374069862,0.9999745369506106,0.9999419907088261,0.9998635287905624,0.9998943494549689,0.9999559259134703,0.9998909503318464,0.9999139956206299,0.9999504602722795,0.9999091495659133,
7.8431372549019605,0.9998882663223497,0.999945063064125,0.9998860298262506,0.9999762847816683,0.999944944339221,0.9998664573442646,0.9998997289874849,0.9999576738896291,0.9998979603419677,0.9999149679641184,0.9999515955040958,0.999907572693673,
7.766990291262135,0.9998862246079627,0.999943100582611,0.9998889124078207,0.9999756292336938,0.9999446944659757,0.99987213264413,0.9998970344369866,0.9999563528530674,0.9998937728704609,0.9999121285037696,0.9999508091071632,0.9999108481166199,
7.6923076923076925,0.9998870640068156,0.9999453294531022,0.9998886104926665,0.9999759588611948,0.9999449235830499,0.99987366438642,0.9998971957857483,0.9999596433256304,0.9998964886000927,0.9999142399930468,0.99995230717785,0.9999140088484402,
7.6190476190476195,0.9998924141167982,0.9999478938605183,0.9998888677132801,0.9999756613979625,0.999945860048666,0.9998730798126849,0.9999006542634727,0.9999588796794475,0.9998989810649034,0.999914363976112,0.9999512444034097,0.9999091463086601,
7.547169811320755,0.9998936201628983,0.999946951589794,0.9998949177364231,0.9999761301461777,0.9999469123974305,0.9998747478712147,0.9999014987962804,0.9999596028743648,0.9999021084499052,0.9999176777982132,0.9999521066203301,0.9999161577009479,
7.476635514018691,0.9998970728856473,0.9999469654611689,0.9998944841066393,0.9999768717075949,0.999946505627238,0.9998769653861382,0.9999005573852336,0.9999601187040664,0.9999052570722535,0.9999199302432693,0.999953933410865,0.9999172102235975,
7.4074074074074066,0.9998922724658879,0.9999492867418457,0.9998920604126526,0.9999770037726055,0.9999486720571642,0.9998763456627798,0.9999046783112197,0.9999601025165424,0.9999044927008273,0.9999197463919086,0.999955963747167,0.9999155316209032,
7.339449541284404,0.9998966283170441,0.9999510683353008,0.9998963775937093,0.9999780070803356,0.9999486301674757,0.9998811462893361,0.9999065654587395,0.9999611542087146,0.9999033351930202,0.9999193903377518,0.9999563698445812,0.9999185993428805,
7.2727272727272725,0.9998986691765818,0.9999506843092058,0.9999015967582954,0.9999773826498899,0.9999498321442625,0.9998746591184838,0.9999032438489008,0.9999621890705958,0.9999026395743368,0.999920495707079,0.9999555525367653,0.9999222464045378,
7.207207207207207,0.999901593145966,0.9999490456705045,0.9999021150580091,0.9999781598250785,0.9999488840047516,0.9998816885802196,0.9999086172429994,0.9999608809286143,0.999907552568709,0.999924414056643,0.9999557550035966,0.9999202725362518,
7.142857142857142,0.9998987588711199,0.999952143163151,0.9998994403730005,0.9999784874360398,0.9999501308086443,0.9998821128289289,0.9999084796663442,0.9999617822797197,0.9999029398527178,0.9999213242079135,0.9999570493262976,0.9999191227264311,
7.079646017699115,0.9999024736713431,0.9999499193862812,0.9999007722276679,0.9999789202028977,0.9999512201163796,0.9998876301361161,0.9999112914736019,0.9999642191309823,0.9999046402422826,0.9999222032709771,0.99995871258603,0.9999242391179095,
7.017543859649122,0.9999015318511949,0.9999501087759177,0.9999009315097583,0.9999793462714691,0.9999516622179976,0.999887463272347,0.9999135313492385,0.9999637110725079,0.9999138134731622,0.9999240223032623,0.9999575446959487,0.9999205805577595,
6.956521739130435,0.9999008854759429,0.9999535366202038,0.9999061338989823,0.9999788918949871,0.9999526631579169,0.9998907235122321,0.9999163695902848,0.9999659456679694,0.9999122619943833,0.9999257227081875,0.9999589557064688,0.9999289100741323,
6.896551724137931,0.9999015265529492,0.999953970053875,0.9999083685502511,0.9999792802873682,0.9999522023387462,0.9998865023277982,0.9999127034999157,0.9999629485440721,0.999910050279625,0.9999272010591218,0.9999581161511606,0.9999269889251927,
6.837606837606838,0.9999065802825594,0.9999554966710125,0.9999070027352902,0.9999783757164535,0.9999539815568615,0.9998900701303256,0.9999133402120232,0.9999638567694792,0.9999083209606233,0.9999287245448736,0.9999596403333982,0.9999262630744031,
6.779661016949152,0.9999081563106873,0.9999555333127811,0.9999076505071691,0.9999792947115752,0.9999544504328851,0.9998917558154843,0.999912936892473,0.9999649598592322,0.9999179246046669,0.9999306284363015,0.9999594604160321,0.9999291716163308,
6.722689075630252,0.9999058711483382,0.9999521670795019,0.9999082444877687,0.9999793821024686,0.9999542008089798,0.9998929696394595,0.9999162891458354,0.9999626093711905,0.9999165901123455,0.9999307107208527,0.9999603520221951,0.9999273549279689,
6.666666666666667,0.9999107094947233,0.9999557155210348,0.9999045140040373,0.9999798725373402,0.9999537676733077,0.9998949776896442,0.9999160730721088,0.9999634134596754,0.9999174261617476,0.9999290932995528,0.9999608082218873,0.9999283923747818,
6.6115702479338845,0.9999097009903741,0.9999532248151712,0.9999095248344564,0.9999802565887577,0.9999539246715672,0.9998947132969995,0.9999174288599035,0.9999635701608095,0.999919390806607,0.9999305657530119,0.999961029908972,0.999929714303132,
6.557377049180328,0.9999103467166158,0.9999551783290361,0.9999099711230501,0.9999798779450159,0.9999550831517457,0.9998940351958376,0.9999169458965615,0.9999660299948359,0.9999166083651798,0.9999307934034314,0.9999629015586503,0.9999265030996445,
6.504065040650407,0.9999113707245904,0.9999577889079586,0.9999111384339672,0.9999803592920157,0.999956324948535,0.9998946673141651,0.9999177193043273,0.9999663572055598,0.99991885514249,0.9999305434112965,0.9999628113721666,0.9999301282343429,
6.451612903225806,0.9999103868929637,0.9999575849289062,0.9999111289097943,0.9999818987154024,0.9999568172799527,0.9998982078351155,0.9999206054557577,0.9999682094921714,0.9999210470406635,0.9999297511423073,0.9999622930140608,0.9999287557125994,
6.4,0.9999135871297713,0.9999557807001198,0.9999121904582745,0.999981544594219,0.9999568246778547,0.9998968082223425,0.9999199531120003,0.9999658320647282,0.999918211578139,0.9999313192577219,0.9999628459121819,0.9999326188241922,
6.349206349206349,0.9999118440383337,0.9999567239606625,0.9999117561362018,0.9999807425413111,0.9999589560206761,0.9998997796220419,0.9999217352645882,0.9999663166479074,0.9999216257726842,0.9999338963682873,0.999963090590551,0.9999312101553994,
6.299212598425196,0.9999190233159242,0.9999590168202261,0.9999112990834342,0.9999805175006801,0.9999546663183123,0.9998998630757392,0.9999196404639473,0.999966720998106,0.9999165686084223,0.9999331457558363,0.999962276870078,0.9999309885682194,
6.25,0.9999041923488868,0.9999575903669187,0.999894696664654,0.9999824752458115,0.9999628721514273,0.9999128057892325,0.9999380562881929,0.9999754716475148,0.9999129024676388,0.9999343415558805,0.9999629909387896,0.9999349710059255,
6.2015503875969,0.999917543407754,0.9999586029707233,0.9999194351886493,0.9999828632087133,0.9999569974045447,0.9998971126158436,0.9999206961344502,0.999967876997576,0.999924176744687,0.9999325650417296,0.999964876523229,0.9999323009051927,
6.153846153846154,0.9999159227192677,0.9999624538983862,0.9999174075695254,0.9999826075289378,0.9999576953861665,0.9999073559920091,0.9999230488311108,0.9999691388444538,0.9999212713583799,0.999934660010305,0.9999620855508078,0.9999356827327502,
6.106870229007633,0.9999173828936364,0.9999582276667349,0.9999164778277052,0.9999817953968219,0.99995981108095,0.9999059645464117,0.9999237458859627,0.9999680352187611,0.9999264920529605,0.9999381430559511,0.9999634612530759,0.9999329366968316,
6.0606060606060606,0.9999214036001876,0.9999602415053244,0.9999191039265543,0.9999816922030024,0.9999596091920468,0.9999045166162895,0.9999232162513916,0.9999665866491193,0.9999263848588474,0.9999380942602376,0.9999649850452001,0.9999350391153446,
6.015037593984962,0.9999198625457513,0.9999590523924937,0.9999208629235568,0.9999826365136096,0.9999610107630841,0.9999083122116337,0.9999280952584977,0.9999695782242198,0.9999260545362385,0.9999403897133833,0.9999645456783764,0.9999371454853953,
5.970149253731343,0.9999246325447999,0.9999600391233174,0.9999174620673141,0.999982482121749,0.9999595368728045,0.9999022554650985,0.9999238618299467,0.9999687082922891,0.9999266634157176,0.9999365829330782,0.9999644193053074,0.9999347873416119,
5.9259259259259265,0.9999216778470684,0.9999605052453168,0.9999189242087619,0.9999839994681798,0.9999606563886776,0.9999123141635687,0.9999283195701778,0.9999701396324268,0.9999302124247643,0.9999398448295999,0.9999655174120154,0.9999376664172439,
5.88235294117647,0.9999221837867307,0.9999590776781405,0.9999230834424229,0.999983495159021,0.9999607284540536,0.9999111519633169,0.9999320818354716,0.9999714380127162,0.9999300658845998,0.9999413097534908,0.999967093256052,0.9999363462037627,
5.839416058394161,0.9999226686784305,0.9999630407732771,0.9999245947582699,0.9999832242249822,0.9999618413198453,0.999909422360031,0.999927400053915,0.9999703554008172,0.9999307367392574,0.999941378626019,0.9999677597688279,0.9999405167801653,
5.797101449275362,0.9999241874392902,0.9999620751733341,0.9999274013822415,0.9999840497742515,0.9999617030602111,0.999911896116826,0.999930237240981,0.9999712834829195,0.9999306234431447,0.9999434838436899,0.9999662174322109,0.9999377158915241,
5.755395683453238,0.9999272821477591,0.9999620174789452,0.9999214714738226,0.999983755379791,0.9999633339024012,0.999913351508367,0.9999288178615321,0.9999713306063972,0.9999328694562764,0.9999415978638816,0.9999674929018796,0.999940318994319,
5.714285714285714,0.9999246600786801,0.9999633172637649,0.9999239078926371,0.9999826273954632,0.9999615138484039,0.9999108668076824,0.9999278043615443,0.9999715814264833,0.9999322496800501,0.9999428376024856,0.99996879507238,0.9999407354515649,
5.673758865248227,0.9999255735606616,0.9999658862426585,0.9999263314824391,0.9999842276135362,0.9999630044740221,0.999917423203085,0.9999330658451755,0.9999718433223063,0.9999276208214913,0.9999420470784215,0.9999687439328548,0.9999398867664397,
5.633802816901409,0.9999289054666205,0.9999645642903012,0.9999275532235955,0.9999837752217987,0.9999647352996808,0.9999121762802462,0.9999307778481752,0.9999721910189691,0.9999317500958278,0.9999450007508681,0.9999680171462478,0.9999405617497564,
5.594405594405594,0.9999279719543919,0.9999628058578488,0.9999277130686066,0.9999838131585728,0.9999629426029191,0.999912382976257,0.9999304423257045,0.999971440674596,0.9999330792625686,0.9999447781589369,0.999967063813264,0.9999405759238436,
5.555555555555555,0.9999291938937103,0.9999635303805404,0.9999278681837194,0.999984537995243,0.9999627178234922,0.9999150552631406,0.9999324007628646,0.9999711548475608,0.9999331231294044,0.9999442857296365,0.9999682873827763,0.9999401201321196,
5.517241379310345,0.9999294554694225,0.9999638794311771,0.9999307721269365,0.9999846620025404,0.9999644586038253,0.9999181859889921,0.9999303146684172,0.9999741490479895,0.9999338271877337,0.9999461139935848,0.9999692933365482,0.9999451264097285,
5.47945205479452,0.9999317079441514,0.9999641439424631,0.9999244719748096,0.999984817839246,0.9999667806979747,0.9999170416978064,0.9999345730279496,0.9999737470724281,0.999935513884558,0.9999455588707556,0.9999702312155093,0.999941693778857,
5.442176870748299,0.9999315556471077,0.9999672289149355,0.9999323983613423,0.9999846785560655,0.9999651767539769,0.9999209302542151,0.999934949734238,0.9999736146749415,0.9999372891753172,0.9999460667782855,0.9999692638284905,0.9999459689506656,
5.405405405405405,0.9999316811907488,0.9999660816964309,0.9999318552466075,0.9999855730347135,0.9999665243997604,0.9999183366600647,0.9999353612984262,0.9999749875076299,0.9999343987790197,0.999947126521625,0.9999688462482917,0.9999456395690874,
5.369127516778524,0.999927704021636,0.9999650967802692,0.9999303782276369,0.9999852459105767,0.9999659926517461,0.9999205447063446,0.9999372378770284,0.9999728548759239,0.9999366969417643,0.9999460741354272,0.9999691959323632,0.9999452867687476,
5.333333333333334,0.9999325943898331,0.9999653641484674,0.9999281576046632,0.9999846927887414,0.9999646578567045,0.9999211373058127,0.9999375763153182,0.9999750015635778,0.9999360616541957,0.9999460362140945,0.9999708798466082,0.9999459821268665,
5.298013245033113,0.9999358276128545,0.9999673073871113,0.9999318366599232,0.9999859679315034,0.9999666879057264,0.999917833583123,0.9999361755285046,0.999974125755182,0.9999389529937799,0.9999477122910453,0.9999712871680504,0.999946365355314,
5.263157894736842,0.9999340989031686,0.9999659578137131,0.999932483381089,0.9999858319103415,0.9999658633645107,0.9999226184397431,0.9999379204880423,0.9999720015953181,0.9999377820825328,0.9999488817097232,0.9999707433756176,0.9999456934597961,
5.228758169934641,0.9999342139789591,0.9999667447267641,0.99993393799283,0.9999849764901096,0.9999684681811749,0.999919549647593,0.9999369869900057,0.9999742675951935,0.9999397857569626,0.9999513410089103,0.9999711456310546,0.9999491517503835,
5.194805194805195,0.9999353903236186,0.9999660465747044,0.9999328428497757,0.9999858022246862,0.9999697158185443,0.9999272042458334,0.9999409710720614,0.9999745092355904,0.9999378725303334,0.9999472220949951,0.9999719560884359,0.9999482425233621,
5.161290322580645,0.9999344227660052,0.9999692461804063,0.999933167724623,0.9999867962384439,0.999970608212345,0.9999231006137885,0.9999406722255805,0.9999763309034397,0.9999410790922795,0.9999507948555448,0.9999711002481735,0.9999489382847587,
5.128205128205128,0.9999390674421433,0.9999685668791789,0.9999368670692181,0.99998693701839,0.9999689289989578,0.9999218418806906,0.9999419641398627,0.9999754777850797,0.9999414328929599,0.9999509317335572,0.9999718430247792,0.9999489946763374,
5.095541401273886,0.999936162813624,0.9999674852804559,0.9999366190741924,0.9999864736535217,0.9999697621909871,0.9999259610455428,0.9999417949816977,0.9999765060706548,0.9999423365345668,0.9999502850659563,0.9999745757687697,0.9999489009546842,
5.063291139240507,0.999937281859622,0.9999682999389903,0.9999377294595841,0.9999861613701001,0.9999690332406316,0.9999249198927463,0.9999427638083188,0.9999721314435063,0.9999443754151041,0.9999531236287083,0.9999722333431844,0.9999483254346937,
5.031446540880504,0.9999412666243007,0.9999665304832751,0.9999385017273198,0.9999867485155169,0.9999672891040526,0.9999307023144755,0.9999447816130547,0.9999763829591938,0.9999431299274771,0.999951702655577,0.9999743138363894,0.999950417415637,
5.0,0.9999375745882733,0.9999714751558406,0.9999396705950517,0.9999870573955867,0.9999695358356744,0.9999287655986457,0.9999480228990955,0.9999769691303837,0.9999442314603089,0.9999541490167964,0.9999751896394586,0.999951925812483,
4.968944099378882,0.9999389061678126,0.9999690671180905,0.9999380625423574,0.9999876295701571,0.9999681715113778,0.9999304150352325,0.999944886489592,0.9999759124652818,0.9999443459283414,0.9999519692900601,0.9999730113921002,0.9999527428357002,
4.938271604938271,0.9999389000117048,0.9999694265270679,0.9999415947150081,0.9999867056095646,0.9999693443712977,0.9999296703441768,0.9999466068457015,0.9999758825844509,0.9999447777957305,0.9999525903795063,0.9999731546228601,0.9999518606784169,
4.9079754601226995,0.9999397997188063,0.9999705667122479,0.9999375623085003,0.999986890881661,0.999970676661475,0.9999309200736084,0.9999427262664483,0.9999755429029952,0.9999444281400627,0.9999527224178985,0.9999751208551709,0.9999510034816084,
4.878048780487805,0.9999370924270714,0.9999704632612874,0.9999410918243925,0.9999876323154396,0.9999705943638131,0.9999338851982941,0.9999475615718721,0.9999765261116467,0.9999422054273488,0.9999535014031196,0.9999728191232712,0.999951703714216,
4.848484848484849,0.9999407009727048,0.9999694356988629,0.9999400564609473,0.9999857479184359,0.9999703134327668,0.9999293764372837,0.9999468236572976,0.9999765161180791,0.9999449788333161,0.9999546719602215,0.9999748603531409,0.9999527648077561,
4.819277108433735,0.9999443763541784,0.9999708159347058,0.9999395360058169,0.9999874175161527,0.9999705653113237,0.9999325325014546,0.9999430074251943,0.9999767100825508,0.9999438020911854,0.9999535745224954,0.9999751459123286,0.9999500816698277,
4.790419161676647,0.999944504530031,0.9999699411688334,0.9999440372470668,0.9999878100344313,0.9999720054318431,0.9999312977501227,0.9999481757886172,0.9999787996032488,0.9999466291369383,0.9999553812687241,0.9999748597977246,0.9999540467152597,
4.761904761904762,0.9999464926335827,0.9999712846059375,0.9999424039340391,0.9999877545302411,0.9999718186598916,0.9999316293828653,0.9999478493189803,0.9999782134241012,0.9999460735721682,0.9999543107789928,0.9999739642075232,0.9999528052537257,
4.733727810650888,0.999943498188557,0.9999719659467821,0.9999426745162826,0.9999871458261801,0.9999702947243047,0.9999334028015907,0.9999468931152843,0.9999787069759432,0.9999475894614198,0.9999543018565563,0.9999768795403174,0.9999552713488001,
4.705882352941177,0.9999453551061878,0.9999738982874836,0.9999443703677828,0.999988021369927,0.9999714173618374,0.999936850232638,0.9999463444729514,0.9999790171462933,0.9999476529462992,0.9999547703228321,0.9999754113118647,0.9999537043249948,
4.678362573099415,0.9999420026059024,0.9999744772946099,0.9999450915815975,0.9999871655521679,0.9999716424933005,0.9999360634745258,0.9999490240257546,0.9999776328665622,0.9999459570543252,0.9999557717595842,0.9999758648790105,0.9999536647869257,
4.651162790697675,0.999949659761157,0.9999739926412796,0.9999433301970557,0.9999875467437122,0.9999735268977358,0.9999366112935032,0.9999492366727318,0.999978496517112,0.9999498173593497,0.999957033960671,0.9999761997495049,0.9999566833121759,
4.624277456647398,0.9999475926510544,0.9999726799040409,0.9999472814415931,0.99998848013083,0.9999737938492418,0.9999363661104981,0.9999482331449668,0.9999792292497777,0.9999482041240907,0.9999570362658993,0.9999767666403854,0.9999555869653366,
4.597701149425287,0.9999472841405178,0.9999739070726551,0.9999458635736675,0.9999885606430406,0.9999730748044423,0.9999398463818236,0.9999523371995473,0.9999798922830064,0.9999465747813098,0.9999572112507785,0.9999756719280387,0.9999576306045814,
4.571428571428571,0.9999485481341723,0.9999742127078349,0.9999463900575801,0.9999882445987565,0.9999737179146619,0.9999395075348273,0.9999490488505703,0.9999785604693081,0.9999536934318379,0.9999585515813957,0.9999773613243493,0.9999575324041808,
4.545454545454546,0.9999436518160875,0.9999748823879452,0.999949916930917,0.9999879328011259,0.9999729896328375,0.9999370649101544,0.9999512654576262,0.999979664230594,0.99995254663538,0.9999595821569002,0.9999770460957674,0.9999575855645639,
4.519774011299435,0.9999491264779571,0.9999753857257293,0.9999460383251177,0.9999884142397469,0.9999731681971646,0.9999369793737126,0.9999525825702897,0.9999794700922155,0.9999528311646197,0.9999594666303188,0.9999764548440764,0.999957357156525,
4.49438202247191,0.999951929689064,0.9999714113470849,0.9999442159877664,0.999988478534053,0.9999721310104457,0.9999391877481024,0.9999522358481873,0.9999780363699611,0.9999490464846631,0.9999594432428671,0.999977935988958,0.9999542414229942,
4.4692737430167595,0.9999494397097458,0.9999727441623797,0.9999497943369721,0.9999892423625947,0.9999735517953299,0.9999401809151642,0.9999522996961069,0.9999791157432247,0.9999514185855723,0.9999594162935229,0.999977938680363,0.9999567277705158,
4.444444444444445,0.9999520157700653,0.9999760536802272,0.9999494772396729,0.9999889628038505,0.9999740578249958,0.9999391154090217,0.999953712445214,0.9999799065312743,0.9999526723000738,0.9999600676576401,0.999978513451868,0.9999591617807045,
4.41988950276243,0.9999517800879192,0.9999742556710823,0.9999503062491055,0.9999895613962169,0.9999745125630103,0.9999398241874162,0.999950784081751,0.9999805530451449,0.9999528195671541,0.9999601461005135,0.9999780232242229,0.9999583016441179,
4.395604395604396,0.9999495313580741,0.9999766431346542,0.9999470999151727,0.9999888549740056,0.9999741668127036,0.9999387852643308,0.9999514454992989,0.9999795517844586,0.9999539900097922,0.9999615635006327,0.9999781828715942,0.9999608329156218,
4.371584699453552,0.9999516978375514,0.999975452259949,0.9999493586906143,0.9999892085644279,0.9999754913383796,0.9999396379732787,0.9999540051402881,0.9999813228342148,0.9999540881706533,0.9999617836249208,0.9999784682461595,0.9999597550934212,
4.3478260869565215,0.9999516753246571,0.999976320257757,0.9999514635665991,0.9999892807286843,0.9999736931294554,0.9999397120639845,0.9999543582529942,0.999980778853495,0.9999553950971284,0.9999623144214889,0.9999777320211815,0.9999602768269762,
4.324324324324325,0.9999522461642351,0.999975443664896,0.9999512712861706,0.9999897303306452,0.9999749379206972,0.9999419600144728,0.9999551162891606,0.9999806586971505,0.999953025973251,0.9999635679508645,0.9999790789438834,0.9999609427402671,
4.301075268817205,0.9999525137088449,0.9999757737464237,0.9999538076122364,0.9999893090455771,0.9999741421500393,0.999943564203796,0.9999553439515493,0.9999814559286925,0.9999561699984408,0.9999641363974073,0.9999777159848364,0.9999604833029501,
4.27807486631016,0.9999535916814025,0.999976514010394,0.9999529197711804,0.9999890018383442,0.9999770802835202,0.9999474195871467,0.9999544557614382,0.9999807225190926,0.9999554177843035,0.9999631469745236,0.9999788852560884,0.9999611886113398,
4.25531914893617,0.9999542241573679,0.9999773112205045,0.9999530236438302,0.9999893239014096,0.9999745567730856,0.9999433115040107,0.9999557933801854,0.9999805724497717,0.9999560052542441,0.9999637885127767,0.9999784839040159,0.9999609903888047,
4.232804232804233,0.9999555356847566,0.9999760656995755,0.9999530189791623,0.9999904520534363,0.9999747701634898,0.9999467066992968,0.9999591935786034,0.9999823173016398,0.999953716899535,0.9999638249104572,0.9999786644512015,0.9999641836637165,
4.2105263157894735,0.9999552145906824,0.9999763597878489,0.9999526980671931,0.9999893969369464,0.9999776995302233,0.9999466821900092,0.999955622666329,0.9999821392530892,0.9999606600859625,0.9999640902591236,0.9999797566835932,0.9999639061102011,
4.18848167539267,0.9999526237476936,0.9999776157062574,0.9999558277163102,0.99998982037545,0.9999764597725929,0.999945242791429,0.99995531577955,0.9999818369779294,0.9999567513489691,0.9999637481051019,0.9999796976776556,0.9999634736195275,
4.166666666666666,0.9999506328531983,0.999978935501656,0.999954454143716,0.9999897573581114,0.9999783193556909,0.999946836320245,0.9999575730817601,0.9999846826221883,0.9999581268509268,0.9999634912589571,0.9999795564489169,0.9999630436167374,
4.145077720207254,0.9999566735181595,0.9999767723391781,0.9999545462493313,0.9999903649220346,0.9999771774732354,0.9999444477300529,0.9999604196843311,0.9999816519605166,0.9999595286440369,0.9999654368202544,0.999979257864499,0.9999615813711179,
4.123711340206185,0.9999587937854755,0.9999777383622456,0.999955956180534,0.9999908570504671,0.9999783264236676,0.9999470724226065,0.9999597529726446,0.9999836329820467,0.999957435884309,0.9999662573427418,0.9999819676687961,0.9999635011841072,
4.102564102564102,0.9999584377002985,0.9999783706758034,0.9999553371880251,0.9999906577132589,0.999977284227158,0.9999488225251971,0.9999597130580247,0.9999830060661594,0.9999582968652205,0.9999654722185746,0.9999808338888354,0.9999652483801402,
4.081632653061225,0.999957351760094,0.9999764426541873,0.9999560873645975,0.9999902034084921,0.9999773831535466,0.9999473684540641,0.999959781514038,0.9999817255081823,0.9999586757162136,0.9999645836202133,0.9999803766187544,0.9999635227093422,
4.060913705583756,0.999956003362678,0.999977358819582,0.9999558459351567,0.9999901951614281,0.9999777938367084,0.999949783085148,0.9999597442882434,0.9999821864886749,0.99995921464728,0.999965683539253,0.9999797169664556,0.9999652493082487,
4.040404040404041,0.9999572100620199,0.9999765672395342,0.999952989019347,0.9999899175782575,0.9999772778229666,0.9999516932889054,0.9999591323659043,0.9999833270496166,0.9999610547921821,0.9999671591388585,0.999981012215278,0.9999668148960282,
4.0201005025125625,0.9999560140594586,0.9999787009721499,0.9999552209086813,0.9999914331379276,0.9999778682216167,0.9999505916239879,0.9999602381331693,0.9999832276852828,0.9999594303267857,0.9999684284140476,0.9999814359378734,0.9999641489370262,
4.0,0.9999586080005783,0.9999787410525933,0.9999561333689646,0.999989419827827,0.9999787140830377,0.9999464480920546,0.999960943959164,0.9999831999108078,0.9999609138914936,0.9999687172031976,0.9999813568611652,0.9999659554065577,
3.9800995024875623,0.9999593408538691,0.9999777649491778,0.9999574248452614,0.999990850945068,0.9999795395942366,0.9999515153834723,0.9999630764772893,0.9999843397510515,0.9999573946343555,0.9999672238546146,0.9999819812925625,0.9999650340734803,
3.9603960396039604,0.999960254343861,0.9999789793276018,0.9999544635830012,0.9999909875642937,0.9999787212941179,0.9999502943861899,0.9999613707737041,0.9999852449166177,0.9999600558037023,0.9999669564139095,0.9999817772173287,0.9999664119657369,
3.9408866995073892,0.999958099690969,0.9999796151638348,0.999958928242054,0.9999911044909208,0.9999777581684407,0.9999535178334712,0.9999630362832358,0.9999842471634041,0.9999634005520732,0.9999687076511055,0.9999829024051161,0.999967329395753,
3.9215686274509802,0.9999590812137995,0.9999790235941708,0.9999585781328623,0.9999909641831151,0.9999783060617538,0.9999519222600803,0.9999609061285591,0.9999833854297143,0.9999599129197708,0.9999684208993836,0.999981328493432,0.9999665538285134,
3.902439024390244,0.9999581248350216,0.9999769520024181,0.9999590226845502,0.9999902124360014,0.999978748338986,0.999949424597561,0.9999604013585226,0.9999826755541242,0.9999621973774965,0.9999685576316699,0.9999828331158966,0.9999673032505701,
3.8834951456310676,0.999959471656373,0.999979682140022,0.999959986180311,0.9999907530022484,0.999980106699953,0.9999519386364704,0.9999629804254647,0.999985045576853,0.9999623689522411,0.9999692214112998,0.9999832024721662,0.9999664279059757,
3.864734299516908,0.9999598005915474,0.9999793174178347,0.999957717736896,0.9999905171672044,0.9999790479342043,0.9999528646197641,0.9999614986181641,0.9999846490898224,0.9999619232321277,0.9999684268345269,0.9999820658753716,0.9999664609355421,
3.8461538461538463,0.9999621112681735,0.9999793361962459,0.9999618721648148,0.9999911247239217,0.999980249747389,0.9999545727042243,0.9999631963530385,0.9999857987345899,0.9999624881759382,0.9999702979165671,0.9999828738790407,0.9999680552839127,
3.827751196172249,0.9999599072832002,0.9999810800114591,0.9999604082588573,0.9999917773474247,0.9999808382967614,0.9999521461629316,0.999962942022919,0.999984497296858,0.9999641427320825,0.9999709033321827,0.9999831818101279,0.9999684143418103,
3.8095238095238098,0.9999602975255278,0.9999818276090972,0.9999587592645888,0.999991249414588,0.9999800165702628,0.9999511202876173,0.999963917301043,0.9999836325713589,0.9999646419041077,0.9999690600737354,0.9999817471082015,0.9999689560869275,
3.7914691943127963,0.9999612641176677,0.9999812488746398,0.9999598604303547,0.9999903622660241,0.9999812161939963,0.999954844909984,0.9999657442758956,0.9999851740676687,0.9999658239393261,0.9999708190966742,0.999982521784644,0.9999671611304262,
3.7735849056603774,0.9999610018199347,0.9999795329102633,0.9999613623038259,0.999991749987008,0.9999821387722222,0.9999560374118842,0.9999646904791362,0.9999862626724609,0.9999633650656392,0.9999699640950124,0.9999827937456724,0.999970114269491,
3.755868544600939,0.9999623235606465,0.9999797541695278,0.9999608075133222,0.9999913053499354,0.9999804784376447,0.9999556914302297,0.9999653217698744,0.9999847415423121,0.9999649812599873,0.9999719089021428,0.9999827850616577,0.9999656704623233,
3.7383177570093453,0.9999603902275181,0.9999796399610328,0.9999604355170219,0.9999907520410662,0.999980060744694,0.9999569772900756,0.9999656919241943,0.9999844154854561,0.9999653630258825,0.9999705455414619,0.9999841340502277,0.999969001305644,
3.7209302325581395,0.9999645575910754,0.9999825583375155,0.9999628999834455,0.9999917463096571,0.9999812732210663,0.9999556456814335,0.9999622257669057,0.9999853043328839,0.9999660506115456,0.9999715434929528,0.9999836540176434,0.9999689602380337,
3.7037037037037033,0.9999673086113973,0.999981106395384,0.999962593821266,0.9999915702400657,0.9999804933096422,0.9999551492041595,0.9999613846401708,0.9999852312486414,0.9999658303276305,0.9999704221796056,0.9999834613436595,0.999967881966299,
3.686635944700461,0.9999624191587332,0.9999817358957152,0.999960974203269,0.9999919891120882,0.9999807734901044,0.9999593459713151,0.9999639412218259,0.9999857335005079,0.99996275864971,0.9999704155961795,0.9999834707277286,0.9999721072190316,
3.669724770642202,0.9999627592051282,0.9999815748722687,0.9999619698357002,0.9999915366022378,0.9999801261369414,0.9999556291819439,0.9999647889139159,0.9999840615509534,0.9999677991266996,0.9999711673148616,0.9999833733654806,0.9999710644395207,
3.65296803652968,0.9999637394093401,0.9999838353198478,0.9999644693939814,0.9999920149698986,0.999982281357762,0.9999595587028216,0.9999683142820484,0.9999870011254924,0.9999674603376901,0.9999716030080777,0.9999841874293989,0.9999699866028647,
3.6363636363636362,0.999965049322359,0.9999828109858411,0.9999637517326201,0.9999924842456498,0.9999823135214992,0.9999603367094252,0.9999677537365972,0.9999859622242185,0.9999669023675966,0.9999732514291695,0.9999845360284516,0.9999693925183101,
3.619909502262444,0.9999678867715843,0.9999818672878902,0.9999648867729861,0.9999921666050336,0.9999820558926911,0.9999584683619455,0.9999682258614044,0.9999873767796035,0.9999671697640188,0.9999735525922466,0.999984052140539,0.9999691495029579,
3.6036036036036037,0.9999646515239015,0.9999823163957039,0.9999657108911087,0.9999928487153359,0.9999825520249719,0.9999609964295261,0.999967321478433,0.999986148501597,0.9999683381768159,0.9999735508719518,0.9999840326442517,0.999972295987046,
3.587443946188341,0.9999648050698342,0.9999830086043222,0.9999647196864507,0.9999924298556591,0.9999831995888502,0.9999575307957355,0.999967960121679,0.9999866175758296,0.999968268275063,0.9999729990455257,0.9999852723701799,0.9999736431188438,
3.571428571428571,0.9999658778244035,0.9999831931109272,0.9999655519784701,0.9999923027972047,0.9999825395181037,0.9999588278421895,0.999967867727243,0.9999868817401977,0.9999716957617028,0.9999737402381494,0.9999843768286806,0.999972650266907,
3.5555555555555554,0.9999673021410049,0.9999822897521905,0.9999659577100338,0.9999917475921452,0.9999825861226626,0.9999586830314048,0.9999680823302755,0.9999869539191927,0.9999680293629455,0.9999737509018093,0.9999853964136294,0.9999717422496662,
3.5398230088495577,0.9999668094506204,0.999983241803924,0.9999659137438823,0.9999929091702914,0.9999837344711467,0.9999596414822622,0.9999674336401798,0.9999879080076202,0.9999665705848313,0.9999739082776158,0.9999849415323476,0.9999702315835004,
3.524229074889868,0.9999662111298613,0.999983835803502,0.9999640254384942,0.9999919077596264,0.9999825562630815,0.9999600571748655,0.9999677093758341,0.999987508134822,0.9999686025770622,0.9999750783944735,0.9999849550409201,0.9999708457012434,
3.508771929824561,0.9999669443132018,0.9999842471971471,0.9999675237744596,0.9999929302137094,0.9999832927757206,0.9999612280641252,0.9999684135091085,0.9999867452883343,0.9999687936972951,0.9999751299614648,0.9999853975554959,0.999973121545389,
3.4934497816593884,0.9999672443403237,0.9999841290751483,0.999964912067197,0.9999932396985755,0.9999834537526353,0.9999601592351153,0.9999686497589454,0.9999869601668667,0.9999710101895952,0.9999743134884396,0.999985636340919,0.9999733254440512,
3.4782608695652173,0.9999685132947699,0.9999836801757434,0.9999686184016026,0.9999924641259789,0.9999844332366076,0.9999622010869483,0.9999693900820844,0.999987224587189,0.9999706707825329,0.999975016697278,0.999985757305483,0.9999741701798317,
3.463203463203463,0.9999668661103257,0.9999843182322251,0.9999674543379026,0.9999925426798758,0.9999836996392025,0.9999622531063208,0.999970820604039,0.9999879472422455,0.9999687946172318,0.9999742856706322,0.999985684047282,0.9999738818300064,
3.4482758620689653,0.9999662562804387,0.9999845777362832,0.9999685459023454,0.9999929861629997,0.9999842197475253,0.9999603061880422,0.9999697480615941,0.999987417833979,0.999968180176902,0.9999748428311139,0.9999858682242093,0.9999751624081405,
3.4334763948497855,0.9999671066795021,0.9999844412714386,0.9999676555189747,0.9999930255079912,0.9999846755322069,0.99996276995459,0.9999714080490161,0.9999881110509186,0.9999722249961941,0.999977180108886,0.9999874189607015,0.9999732729272813,
3.418803418803419,0.9999678733178394,0.9999836405980174,0.9999686940674494,0.9999934973979634,0.9999831898686924,0.9999628645106929,0.9999706053500793,0.9999871475236769,0.9999722991429243,0.9999733059362355,0.99998575225403,0.9999750840619828,
3.404255319148936,0.9999683825039252,0.9999834405592171,0.9999684182689084,0.9999934914868244,0.9999840325602964,0.9999618961332115,0.9999707669118341,0.9999877156720315,0.9999714305142053,0.9999752296592731,0.9999860419231569,0.9999758567709494,
3.389830508474576,0.9999702085314471,0.9999845482674045,0.9999696261101174,0.9999933903606634,0.9999822305850348,0.9999636029484601,0.9999711811869211,0.9999870592691023,0.9999710152304511,0.9999754294212246,0.9999861940567539,0.9999723670033484,
3.375527426160337,0.9999688709622349,0.9999834975183527,0.9999680236694979,0.9999934339497578,0.9999839577742766,0.9999652880684924,0.9999714577032103,0.999987807128775,0.9999706633203568,0.9999764137853867,0.9999868531029287,0.9999742240127025,
3.361344537815126,0.9999685539669776,0.9999839648927593,0.9999704485771587,0.9999932310416018,0.9999853417580538,0.9999637893967939,0.9999722753057806,0.9999873787392528,0.9999699796778564,0.9999762599734675,0.9999860735127004,0.9999746736726238,
3.3472803347280333,0.9999690506850101,0.999985159832714,0.9999695655134101,0.9999933106967103,0.999983461625624,0.9999626134541948,0.999972052582549,0.9999879881815321,0.9999702067187315,0.9999757172951388,0.9999858435052472,0.9999749866174436,
3.3333333333333335,0.9999705256496623,0.9999849428122548,0.9999691959108228,0.9999929054898854,0.9999842861702508,0.9999630127538816,0.9999703300838373,0.9999885186953597,0.9999700036347333,0.9999767434034268,0.9999864016903153,0.9999752640379678,
3.319502074688797,0.9999687014502485,0.9999853450482605,0.9999724530558265,0.9999942072619649,0.9999860072736756,0.9999640187372697,0.9999730619159342,0.999989609601387,0.9999734104369399,0.9999765181118252,0.9999872157275629,0.9999733855736074,
3.3057851239669422,0.9999694293238496,0.9999840714836422,0.9999708175564349,0.9999936819295688,0.9999842975765717,0.9999656792479421,0.9999709861662074,0.9999875381829257,0.9999706578261669,0.9999779053659279,0.999986661008906,0.9999772855464085,
3.292181069958848,0.9999669538676632,0.9999846686564761,0.99996960140883,0.9999938100568114,0.9999851736072071,0.9999631118542468,0.9999703653378172,0.9999885177853007,0.9999689538822164,0.9999748570773963,0.9999878131272117,0.9999767858030235,
3.278688524590164,0.999972879355001,0.9999863473236918,0.9999720915395203,0.9999939620142019,0.9999857930215745,0.9999639655395056,0.9999729064409626,0.9999887076881895,0.9999733557852684,0.9999766615162997,0.9999866832353722,0.9999751667385158,
3.2653061224489797,0.9999700762714447,0.9999855035541956,0.9999679590605008,0.9999933999829985,0.9999850024108989,0.9999662585761709,0.9999708881731909,0.9999884140898883,0.9999720410736379,0.9999755036768447,0.9999870722781521,0.9999761501045882,
3.2520325203252036,0.9999741191966023,0.9999850773080627,0.9999705968505961,0.999993669490308,0.9999852098614977,0.9999641219887163,0.9999733997285074,0.9999883833621954,0.9999744441675393,0.999977340812156,0.9999866876409023,0.9999763910855777,
3.2388663967611335,0.9999716039592242,0.9999850483483343,0.9999698650010432,0.9999941035499503,0.9999848792061946,0.9999684617064853,0.9999750954027522,0.9999903697194579,0.9999731735472459,0.9999769818106494,0.999987116741329,0.9999766990524271,
3.225806451612903,0.9999714143282564,0.9999859174279419,0.9999695598502839,0.9999937619171072,0.9999853031516014,0.9999660379521875,0.9999737109135889,0.9999884114051082,0.9999727243655885,0.9999773493385585,0.9999875989024768,0.9999765779849281,
3.2128514056224895,0.999971391723005,0.9999850875106634,0.9999717075326263,0.9999935102275197,0.9999853923772175,0.9999655497149333,0.9999738820483013,0.9999890081770384,0.9999731348183245,0.9999765676602794,0.9999872667304889,0.9999779127739576,
3.2,0.9999724129331256,0.9999865363485215,0.9999717757695934,0.9999939321171604,0.9999861036413807,0.9999648540890004,0.9999722424422912,0.9999886720561761,0.9999748385770594,0.9999778663729906,0.9999865341403054,0.9999782485211458,
3.187250996015936,0.9999715498169843,0.999987131559282,0.9999707737146474,0.9999936233187877,0.9999863129047227,0.9999677155533566,0.999974008958208,0.9999886485798822,0.9999734818412999,0.999977408542092,0.999987785470252,0.9999746998816875,
3.1746031746031744,0.9999710903543351,0.9999849497907708,0.9999722054486079,0.9999939087667618,0.9999861575408664,0.9999671583351429,0.9999730268882409,0.9999881228999242,0.999972818592558,0.9999792594857508,0.9999869647093114,0.9999783358408811,
3.1620553359683794,0.9999717743125781,0.9999875151060148,0.999971286182946,0.999993073611159,0.999986491197651,0.9999674017989831,0.9999742698306255,0.999988701559092,0.9999724834702042,0.9999779269417534,0.9999876775342336,0.9999774143421671,
3.149606299212598,0.9999701063480304,0.9999876673495053,0.9999718762737445,0.9999942809389372,0.9999860174409635,0.9999663033586885,0.999974256720804,0.9999892241749807,0.9999742092085413,0.9999787076560867,0.9999884387729155,0.9999779325235372,
3.1372549019607843,0.9999720719653548,0.9999850546278464,0.9999702461865794,0.9999939933207149,0.9999850289216718,0.9999675007929298,0.9999744105787353,0.9999888678349386,0.9999742594694639,0.9999786772467875,0.9999871774760937,0.99997714595485,
3.125,0.9999733391588753,0.9999860116137451,0.9999722776478924,0.9999939823522863,0.9999863746822304,0.999967241935216,0.9999749763450961,0.999989445062156,0.9999740351492342,0.9999773103825536,0.9999874178444959,0.9999779531275057,
