,Airplane.bmp,BARBARA.bmp,BOAT.bmp,BRIDGE.bmp,Building.bmp,Cameraman.bmp,girl.bmp,LAX.bmp,LENNA.bmp,Lighthouse.bmp,Text.bmp,WOMAN.bmp,
100.0,0.9829919351138363,0.9912449284024429,0.9827677952968221,0.9976278236556732,0.9923047620171405,0.9801532683767592,0.984045976572763,0.9932544676599914,0.9839103051401628,0.9876270113945127,0.9932657038829543,0.985932188275265,
88.88888888888889,0.9873599138410131,0.9936615457248568,0.9872778003040636,0.997927374618939,0.9941114784771007,0.9852279436755405,0.9883672026553884,0.9951065844847818,0.9882102053411783,0.9906468647001891,0.9948279975629735,0.9897507930188779,
80.0,0.9893600039100131,0.9945507976327771,0.989324743118632,0.9981518112254202,0.9949794199640078,0.9876521687417205,0.9901268302997701,0.9958617962481707,0.9900234222595,0.9920575608933622,0.9956353756028734,0.9912677014255182,
72.72727272727273,0.9911517771226449,0.9955532218491587,0.9910668729346203,0.9983805883038027,0.9958026039106225,0.9895758313527355,0.9917442405976554,0.9965248416079359,0.9917359974239761,0.9933410774555326,0.9963308223767456,0.9928407876944291,
66.66666666666666,0.9923061247538327,0.9961547651172117,0.9923156145134955,0.9985601997031204,0.9963304521842407,0.9910291083625614,0.9928161585782699,0.9969925115462338,0.9928080828921673,0.9942267790649031,0.9967875925074381,0.9936857811264812,
61.53846153846154,0.993101702156079,0.9964848822180732,0.9930339897566574,0.9986730704109378,0.9966356519720697,0.9918982294052819,0.9935253843260021,0.9972962647537817,0.9935404699909847,0.9947575136380667,0.9970851134808104,0.9944008296838749,
57.14285714285714,0.9937047048977143,0.9968514055525385,0.993623792621818,0.9987857949199902,0.996926329268547,0.9926477028154306,0.9941559055985497,0.9975573905344695,0.994043542403779,0.9951618353474403,0.9973181457474037,0.994884220064376,
53.333333333333336,0.9943215825213372,0.9970976103435731,0.9941806418734499,0.9988813798039465,0.9972088547023565,0.9932784155276714,0.9946131304227147,0.9977534137649174,0.9946655233814167,0.9956448590723704,0.997563274147811,0.995300101669324,
50.0,0.9947311730037594,0.9974022709437067,0.9946957596462822,0.9989826137192899,0.9974752447771945,0.993857244337331,0.9951214093350078,0.9979949710634762,0.9950704691834732,0.9960370770880407,0.9977737821661526,0.9956456011566509,
47.05882352941176,0.9952070170481588,0.9976162240955788,0.9951573963359364,0.9990582749523941,0.9976493185577995,0.9944217638972879,0.9955578490315942,0.9981092684291876,0.9955098596628683,0.9963940833574948,0.9979370512596961,0.9960662104872698,
44.44444444444444,0.9956258858847256,0.997754696978465,0.9956044184270638,0.9991257334980088,0.9978345679117284,0.9947992631669312,0.9959484219957074,0.9982899031236134,0.9959579577927818,0.996638826620163,0.9981156055571608,0.9964284261091826,
42.10526315789473,0.9959950550159998,0.9979834759840884,0.9959687190298222,0.9991770125846685,0.9979993351430543,0.9952692592690925,0.9962615861018699,0.9984209420589181,0.9962616812526502,0.996921151869901,0.9982631675204339,0.996728120898725,
40.0,0.9963144056300992,0.9981413330227296,0.9963107782845976,0.9992486606299156,0.9981690148692025,0.9956587123026696,0.996561135790968,0.9985437908916895,0.9965449832426012,0.9971538387064892,0.9983958628997147,0.9969921485548807,
38.095238095238095,0.9966321553915639,0.9983199708128662,0.9966132631286369,0.999306072891873,0.9983178652601358,0.9960876842476223,0.9968903601357142,0.9986909108624982,0.9968532393069913,0.9974397703708153,0.9985542724488099,0.9972332670128049,
36.36363636363637,0.9969353592834065,0.9984732747626669,0.9969347773059558,0.9993590621169534,0.9984909418814515,0.9963956224850751,0.997142459932632,0.9988054064112541,0.9971117054194452,0.997660324359876,0.9986829064169132,0.997502001209278,
34.78260869565217,0.9970812943016732,0.9985295726579773,0.9970390226725767,0.9993961367201687,0.9985477998628634,0.996563631212413,0.9972872417827079,0.9988699336872275,0.9973030918118689,0.9977478680921767,0.9987284256348113,0.9976121490766603,
33.33333333333333,0.9972022099479831,0.9985852980256018,0.9971653434514637,0.9994212920141621,0.9986144671942514,0.996707600917808,0.9973877490158577,0.9988967090158839,0.997400424817758,0.9978299144369104,0.9987809615134281,0.9977419804818797,
32.0,0.9973374733096516,0.9986769814794888,0.9973017350586008,0.9994421781636963,0.9986692583586202,0.9968886175305134,0.9975116775507163,0.9989592023669747,0.9974797795514935,0.9979127319373372,0.9988362413097833,0.9977976071141568,
30.76923076923077,0.9974229349496315,0.9987167177583496,0.9974170865602073,0.9994629984936598,0.9987203195677355,0.9969658600229611,0.9975967827850054,0.9990078613077538,0.997617237914698,0.9980072745439588,0.9988825207035548,0.9979091830677543,
29.629629629629626,0.9975160648030275,0.9987443158913732,0.9975228800497361,0.9994831958732929,0.9987699544531308,0.9971287325787985,0.9977110244207333,0.9990398624033804,0.99771076662325,0.9980944445516539,0.9989335573859331,0.9979923648195773,
28.57142857142857,0.9976277478306318,0.9988177923122312,0.9975610175960702,0.9995005232490728,0.9988273939687038,0.9972036731115392,0.9977848717385136,0.9990847255771194,0.9977778927804479,0.9981679774681159,0.9989634198282104,0.9980680264243055,
27.586206896551722,0.9977278649896958,0.9988492545632345,0.9976897560446798,0.9995234761763395,0.9988410566184206,0.9973132237088933,0.997875745498078,0.9991162425100517,0.9978523197097937,0.9982340194170488,0.9990025573277699,0.9981389469117432,
26.666666666666668,0.9977827879909191,0.9989090559671052,0.9977604105502146,0.9995387723247504,0.9988989870683109,0.9973945125578255,0.9979386144435635,0.999158289892268,0.9979496327148402,0.9983131496898401,0.9990310521169796,0.9982232631615217,
25.806451612903224,0.9978606734645472,0.998930779527727,0.997888541949455,0.999548558155188,0.9989401541215593,0.9975107271937087,0.9980129705545192,0.99917917711226,0.9980245654343125,0.9983498637067846,0.9990628353854959,0.9982653590509093,
25.0,0.9978900469145179,0.9990427614220824,0.9978343950356464,0.9995580947043528,0.9990051402005009,0.9975425003856085,0.9980931400257333,0.9991970483400558,0.998084909597433,0.9984331491489001,0.9991721352174469,0.9982881490077663,
24.242424242424242,0.9980170124260987,0.9990039284979879,0.9980037441788653,0.9995853671800731,0.9990028638072164,0.9976490813864576,0.9981435498184785,0.9992236786456338,0.998120209267246,0.9984607317676296,0.9991227181547914,0.9983863232222033,
23.52941176470588,0.9980704283860042,0.9990301705438795,0.9980791577587873,0.9995935846133458,0.9990432486806813,0.9977279040111223,0.9982204059698793,0.9992564019527069,0.9982195491819057,0.9985124262612087,0.9991558927218877,0.9984416022031828,
22.857142857142858,0.9981472787419883,0.9990798149488166,0.9981389067828219,0.9996117824991698,0.9990650841149066,0.9978055001134333,0.9982540723469607,0.9992774298648894,0.9982812329537805,0.9985622546714261,0.9991707837616483,0.9984837042999549,
22.22222222222222,0.9981723152339358,0.999079499335491,0.9981668542986752,0.9996274152772715,0.9991004377996194,0.9978694612949348,0.9983372671323587,0.9993089187888078,0.9983218588496068,0.9986050755307353,0.9992336479140899,0.9985232266654988,
21.62162162162162,0.9982494867695637,0.999143280451078,0.998248301561415,0.9996310217390538,0.999119869230144,0.9979317843028069,0.9983727186208518,0.9993171666297056,0.9983546728085447,0.9986565938891109,0.9992354255369508,0.9985789142544464,
21.052631578947366,0.998321864631619,0.9991377112423735,0.9982930639848298,0.9996404883881315,0.9991335041335081,0.9980161212334508,0.998425157482957,0.9993388630868086,0.9984200853643949,0.998682228615457,0.9992408045186396,0.9986483790759267,
20.51282051282051,0.9983400718128989,0.9991728407363063,0.9983468468263188,0.9996552470489876,0.9991561200202342,0.9980531080116544,0.9984388823369417,0.9993694703825711,0.9984475602594582,0.9986989526429245,0.9992720835224244,0.9986364578601693,
20.0,0.998391798059351,0.9992003750825532,0.9983505839060642,0.9996583177840913,0.9991906102214855,0.9980814553854527,0.9984981827315317,0.9993750638712943,0.9984679505494138,0.998744876298121,0.9992890870796284,0.9986900168859569,
19.51219512195122,0.9984224841558323,0.9991998666054108,0.9984156462749539,0.9996712917037948,0.9992052671013559,0.9981628507081256,0.9985364671545545,0.9993909753106193,0.9985462661610485,0.998775458259077,0.9993113048614007,0.9987129196760164,
19.047619047619047,0.9984619864209888,0.9992343290425952,0.9984695655200707,0.9996750548679104,0.9992274263287947,0.9981967991633749,0.998566204512727,0.9994073295288353,0.9985649821128777,0.9988267284857445,0.9993261266114318,0.9987378635695544,
18.6046511627907,0.998531110363908,0.9992546194450139,0.9985026284405445,0.9996795147429121,0.999259332986072,0.998225593128871,0.9986034422926962,0.9994257680490315,0.9986082510586498,0.9988587896843097,0.9993364616481919,0.9988023409390994,
18.181818181818183,0.9985571050311502,0.9992613682497204,0.9985321749480613,0.9996944170773309,0.9992531922605862,0.9982991452862173,0.9986483655276821,0.9994358234371966,0.9986557417445165,0.9988632586179277,0.9993598488542867,0.998787486550638,
17.77777777777778,0.9985641538366975,0.9992985602817057,0.9985486009529987,0.9996940550322071,0.9992774377753577,0.9983133329633467,0.9986967428659852,0.9994552728681281,0.9986916218934847,0.9988802282392397,0.9993831597644351,0.9988593035156097,
17.391304347826086,0.998611775545903,0.9993013786379877,0.9986020280689895,0.9996989557810072,0.9993051523535843,0.9983397684864418,0.9987113489316525,0.9994733527494213,0.9986975064507235,0.9989378488945674,0.9993941335656256,0.9988701218788076,
17.02127659574468,0.9986414446303704,0.9993223786256276,0.998648940757053,0.999708443163789,0.9993326729748463,0.9984069890778073,0.9987347591432411,0.9994730386784026,0.9987588083657217,0.9989682044345279,0.9994120963916587,0.9988925572339928,
16.666666666666664,0.9986623844763333,0.9993508674057274,0.9986651376388667,0.9997159810573037,0.9993393306420548,0.9984416033022223,0.9987651215910052,0.9994998820957033,0.9987678355420715,0.9989705967067117,0.9994203793048972,0.9989132968781715,
16.3265306122449,0.9986954034765404,0.9993523698143243,0.9986939368139539,0.9997307586096136,0.9993379730216583,0.9984824547650578,0.9987855449607206,0.9994973315511131,0.9988041513183148,0.999000833353692,0.9994288508581141,0.9989432065998869,
16.0,0.9987430824652904,0.9993494392353824,0.9987273674117199,0.9997312271754978,0.9993686985141171,0.9985158479061303,0.9988048781308786,0.9995154197220917,0.9988357607183361,0.9989926102316208,0.9994369147516409,0.9989455008976069,
15.686274509803921,0.9987664017424233,0.9993804027850121,0.9987384493225354,0.9997325974707065,0.9993799843045328,0.9985552485636537,0.998838792277738,0.9995223327343423,0.9988421432739201,0.9990796462071688,0.9994665575612317,0.9990036402980307,
15.384615384615385,0.998791309366626,0.9994020361461049,0.9987928003476005,0.9997439794092033,0.9993887073545566,0.9985553377763481,0.9988602527401783,0.9995236293888494,0.9988510062628544,0.9990596358347715,0.9994729352258396,0.9990187279995834,
15.09433962264151,0.9988148071651799,0.9994024201913382,0.9988104383349433,0.9997481743564157,0.9993894435505318,0.998593176971822,0.9989035865963122,0.9995418686225142,0.9989065000931514,0.9990648415326757,0.9994729289595672,0.999039935824316,
14.814814814814813,0.9988335077331733,0.9994050611329106,0.9988099970010943,0.999753665866911,0.9994127303901569,0.9986151199066107,0.9989065302614509,0.9995427366583447,0.9989138531284156,0.9990773604042956,0.9994833707056076,0.9990505950223334,
14.545454545454545,0.9988448546564139,0.9994393479464044,0.9988576168636488,0.9997590451725856,0.9994333054016518,0.9986457891455666,0.9989419438464828,0.9995571052793255,0.9989202825525074,0.999091911248801,0.9994984414419245,0.999067810286366,
14.285714285714285,0.9988979659292353,0.9994391884734061,0.9988853925882881,0.9997624281034081,0.9994365742994047,0.9986941298263972,0.998944045949563,0.9995725070058932,0.9989664469322621,0.9991168858403697,0.9995038364444717,0.9990861712746779,
14.035087719298245,0.9989090541728104,0.9994519820065186,0.9989156652050224,0.9997713988790374,0.9994502226163479,0.9987292281568986,0.9989796348543893,0.9995801777862466,0.9989995947192218,0.9991555000343145,0.9995199112144121,0.9991106893584432,
13.793103448275861,0.9989135685718692,0.9994613423698036,0.9989020165694427,0.9997724862047027,0.9994536407012745,0.9987596438970007,0.999005029831498,0.9995802766924322,0.9989995075166128,0.9991524554013395,0.9995238894642645,0.9991283270323873,
13.559322033898304,0.9989479452270095,0.9994755186639304,0.9989219705795986,0.9997745011749201,0.9994652299574995,0.9987683668599179,0.9990263885522305,0.9995885357736027,0.9989868275406832,0.9991818321362279,0.999539062643249,0.9991335511939151,
13.333333333333334,0.9989764609416902,0.9994790243835953,0.9989684400210462,0.999779587021228,0.9994961754196184,0.9987891895063101,0.9990197120913601,0.9996008755765216,0.9990427930779421,0.999198054084359,0.9995399696481665,0.9991689911314617,
13.114754098360656,0.9989990857570344,0.9994953670486694,0.9989790845205034,0.9997792929614647,0.9994830463863541,0.9988253696338486,0.9990575326832957,0.999606599699981,0.9990397855441918,0.999213168579163,0.9995525410447345,0.9991901928172575,
12.903225806451612,0.9989993140836937,0.9994968816166697,0.99897673817318,0.9997858636653869,0.9994957361463834,0.9988297466985202,0.9990816078084133,0.9996116381129633,0.999063394235361,0.9992253377042907,0.9995707857046899,0.9991948147328781,
12.698412698412698,0.9990230716169888,0.9995169383655809,0.9990066120688953,0.9997921442147005,0.9995045361447606,0.9988630939986708,0.9990983600214827,0.9996218223540534,0.9990689065821328,0.9992543878158154,0.9995728495920058,0.9992050333136785,
12.5,0.9989925886356386,0.9995897382607964,0.9989246537954093,0.9998097878807065,0.999569158488351,0.9988491628152861,0.9991244879582064,0.9997193124854511,0.9991028391478434,0.9992341422457283,0.9996161576494994,0.9992479572405355,
12.307692307692308,0.9990741151046889,0.9995409440070923,0.9990671444700309,0.9997988365288973,0.9995391551888766,0.998882552988055,0.9991279322960183,0.99963838329894,0.9991249947163455,0.999285500002827,0.999572430449243,0.9992391272126333,
12.121212121212121,0.9990867224619576,0.9995293535791017,0.9990769894529968,0.9998024124912458,0.9995272658911113,0.9989148915451251,0.999140393370281,0.9996446852154993,0.999134515256106,0.9992833952051384,0.999576478044165,0.9992404280506328,
11.940298507462686,0.9990726935180699,0.9995468949563677,0.9990910093183686,0.9998063932214304,0.9995423058028647,0.998939377419014,0.9991525452463867,0.9996500405808296,0.999146071616061,0.9992811771371743,0.9995874364390706,0.9992743974217347,
11.76470588235294,0.9991232303869132,0.9995576062055759,0.9991230968752042,0.9998062882931776,0.9995311314816132,0.9989327174835637,0.9991636389305325,0.9996532333964218,0.9991693146903287,0.9993005210862949,0.9995903543040573,0.9992762823263538,
11.594202898550725,0.9991112499547089,0.9995510591118919,0.99912336419352,0.9998133165808291,0.9995485720523258,0.9989669839002362,0.9991771836849273,0.9996522994666275,0.9991909820598396,0.9993106546522523,0.9996066659639796,0.9993026567970711,
11.428571428571429,0.9991273643212788,0.9995595237812531,0.9991283517648286,0.9998139175366944,0.9995677727994476,0.9989868479124984,0.9991916262821537,0.9996589702017256,0.9991919111715583,0.9993263159582211,0.9996215228423101,0.9992908282764451,
11.267605633802818,0.9991339702145069,0.9995707803340733,0.9991591694285084,0.999816423706201,0.9995690379155003,0.9989709058353543,0.9991763915595444,0.9996669992184278,0.9992002682501413,0.9993459889591615,0.9996202937437203,0.9993063693292965,
11.11111111111111,0.9991691675568334,0.9995812628304843,0.9991577619209752,0.9998253367311384,0.9995829428801045,0.9989971600718086,0.9992135531274099,0.9996828533763825,0.999221261612865,0.9993751368422905,0.9996334712926814,0.9993100014879862,
10.95890410958904,0.9991883824188359,0.9995958752758689,0.9991638247874278,0.999823319883545,0.9995876112900842,0.9990359580599723,0.9992358812035932,0.999684159846971,0.9992203682064681,0.9993657343040009,0.9996435397630616,0.9993114045930298,
10.81081081081081,0.9991906946756314,0.9995946735778625,0.9991907720695017,0.9998200780983609,0.9995890201145852,0.9990413632592572,0.9992382942222825,0.9996848623336104,0.9992426220159222,0.9993778149613336,0.9996380327345131,0.9993219679050681,
10.666666666666668,0.9992067328540505,0.9995939672407477,0.999210431809277,0.9998321666247926,0.999581477413098,0.9990537976348539,0.999245989135097,0.9996853394212538,0.9992615620409268,0.9993775221990076,0.9996379371957242,0.999349160072625,
10.526315789473683,0.9992200036943178,0.999609167014639,0.9992178036706312,0.9998302405908165,0.9996037907592913,0.9990747106935055,0.9992617439721657,0.9996947784652436,0.9992663551512614,0.9993900397242942,0.9996403696405324,0.9993584253556805,
10.38961038961039,0.9992109974249199,0.9995998343840273,0.999210303251235,0.9998343751590127,0.9995983792801597,0.9990907919021076,0.9992845171284822,0.9996931013803997,0.9992535538449926,0.9993905446484312,0.9996601089449768,0.9993735248561965,
10.256410256410255,0.9992341966569477,0.999624379005818,0.999228916261886,0.9998341165711132,0.9996150775279973,0.9990716967696334,0.9992967925967198,0.9997132300960161,0.9993013547168521,0.9994019254084161,0.9996579367620965,0.9993771797703317,
10.126582278481013,0.9992425157180287,0.9996159359778495,0.9992319363367029,0.9998400388976445,0.9996083309477629,0.9990985244101092,0.9992865010889039,0.9997035650003241,0.999303338804398,0.9994290034696864,0.9996680877984289,0.9993812248335934,
10.0,0.9992383981438899,0.9996290903873525,0.9992480819203104,0.9998386688529253,0.9996336813576854,0.9991345776579371,0.9992992373817545,0.9997121635482845,0.9993120554303274,0.9994036002205144,0.9996739178393341,0.9993797725082398,
9.876543209876543,0.999272261698552,0.9996312420316784,0.9992427602325508,0.9998433648659674,0.9996266749842924,0.9991396155732207,0.9993075236137032,0.999710584548691,0.9992865486920808,0.9994370128779871,0.9996801604283863,0.999409212701598,
9.75609756097561,0.9992856961302079,0.9996399129134066,0.999269157462378,0.9998406086636272,0.9996336638696945,0.9991334465121341,0.9993103692652657,0.9997209129369218,0.999300482411015,0.9994226379509137,0.9996774263500777,0.9994086091331423,
9.63855421686747,0.9992766476851107,0.999633123971864,0.9992723035561656,0.9998521354437826,0.9996374656932333,0.9991689995432523,0.9993426500437033,0.9997178002748793,0.9993374413553501,0.9994404046892925,0.9996925465157953,0.999414232898471,
9.523809523809524,0.9993205074218109,0.9996361656223074,0.9992787773275599,0.999854332922764,0.9996468199175896,0.9991690254747297,0.9993486730919261,0.9997288658924088,0.9993300443789805,0.999466481888837,0.9996849442052109,0.9994468039452779,
9.411764705882353,0.9992686542257476,0.9996931860398506,0.9993117388731735,0.9998569909567039,0.9996543657912649,0.9991660435903654,0.9993173949661507,0.9997169270083976,0.9993263826384937,0.9994600860355989,0.9996907681257468,0.9994344623208754,
9.30232558139535,0.999331741755732,0.9996644046129006,0.9992924895854947,0.9998488502422076,0.9996594398679064,0.9991950027581289,0.9993911872375647,0.999752552627574,0.9993794243783802,0.9994728549673535,0.9996846333218061,0.9994486978520237,
9.195402298850574,0.9993429094689819,0.9996670010886736,0.9993273820930668,0.9998592288665924,0.999658232437376,0.9992371642089928,0.9993793742419007,0.9997332342006118,0.9993652873761737,0.9994808874266411,0.9996924973940289,0.9994520455767135,
9.090909090909092,0.9993321168389533,0.9996797429304433,0.9993210450112066,0.9998592002893006,0.9996665970577815,0.9992280903011581,0.9993867739948011,0.9997478978825437,0.9993847887531725,0.9994881529647528,0.9997005405475254,0.9994547319397415,
8.98876404494382,0.9993469973972948,0.999659803005913,0.999334023018821,0.9998585533226674,0.9996685886530843,0.9992287126782082,0.9993949114839946,0.9997433715554389,0.9993909350282021,0.9994757375399977,0.9997021185726349,0.999463741854891,
8.88888888888889,0.9993435110892781,0.9996627649590046,0.9993595260371905,0.9998620069767648,0.9996636655513842,0.9992364949982585,0.9993971903405585,0.9997412599663372,0.9994070208929274,0.9995049257515498,0.9997190651431291,0.9994847092723315,
8.791208791208792,0.9993492766202294,0.9996848913998394,0.9993588566581302,0.9998622787481833,0.999680273955045,0.9992507833685055,0.9994021985353765,0.9997446633244653,0.9994331420215921,0.9994977471418937,0.9997189762618326,0.9994933916639487,
8.695652173913043,0.999358133263091,0.9997096283516833,0.9993660424510399,0.9998686453526597,0.9996880163707221,0.9992592025143485,0.9994094066790232,0.999757158737849,0.9994046181408826,0.9995008983678558,0.9997187255195403,0.9995036339469541,
8.60215053763441,0.9993856608219936,0.9996939855053811,0.9993576132004727,0.9998629736194439,0.9996773540083925,0.999268458912301,0.9994292532742555,0.9997605935664227,0.9993965842111386,0.9995002216655977,0.9997161956073066,0.9994875411124543,
8.51063829787234,0.9993793148290667,0.9996929889769602,0.999389359938109,0.9998715136703161,0.999682162840229,0.9992676055232835,0.9994269712093734,0.9997553021143304,0.9994294835121501,0.9995200666065495,0.999727483569029,0.9995014186194263,
8.421052631578947,0.9993956449292385,0.9997218677317876,0.999415882265173,0.9998755597630187,0.999694633735832,0.9992847638700016,0.9994433263780399,0.9997761003654253,0.999443417304394,0.9995334005859219,0.9997388785733584,0.9995227369711785,
8.333333333333332,0.9993885281165539,0.9997287719139082,0.9993917594279006,0.9998766452306361,0.9997031020552188,0.9992956093900018,0.9994609116861284,0.999775694499487,0.99945746299845,0.9995480342489393,0.9997577748594779,0.9995004705875614,
8.24742268041237,0.9994111543403528,0.9997034720859244,0.9994328628213418,0.9998798691144105,0.9996981688049101,0.9993059209173358,0.9994389799765386,0.9997643954175566,0.9994548585907657,0.9995560282644234,0.9997362007072266,0.9995296491766822,
8.16326530612245,0.9994239833943975,0.9997210833199273,0.9994152782342298,0.99988085603052,0.9997088589903265,0.9993042862871379,0.9994596021649204,0.9997765994953741,0.9994722173857051,0.9995398390264271,0.9997439214868317,0.9995425364746328,
8.080808080808081,0.9994366264525876,0.9997157572676968,0.9994149882528205,0.999881075607352,0.9997113169839824,0.9993358621635572,0.9994613591398447,0.9997711912746067,0.9994651720482955,0.9995474572453362,0.9997460006706453,0.9995323539009426,
8.0,0.999425174208617,0.9997202892189475,0.9994326262763894,0.9998776043761267,0.9997077614583352,0.9993385283404024,0.9994819274445403,0.9997745386563089,0.9994921814068465,0.9995613648782264,0.9997473862347396,0.9995360135101334,
7.920792079207921,0.9994481001806294,0.9997241762945899,0.9994298358687476,0.9998854567041838,0.9997078379111918,0.9993357344210381,0.9994639604665854,0.9997758927535549,0.9994580549456352,0.9995681215346944,0.9997566311729551,0.9995353381751437,
7.8431372549019605,0.9994543704379131,0.9997227930028215,0.9994361820269716,0.999880098678435,0.9997200751905032,0.999344197801563,0.9994839938495481,0.999782498624456,0.999485478839554,0.9995907573418525,0.999754317293734,0.9995511911459666,
7.766990291262135,0.9994441755678136,0.999726474783512,0.9994482967834483,0.9998831180007485,0.9997242789533933,0.999367446769629,0.9994790312321368,0.9997823491143014,0.9994812424545915,0.9995531668989667,0.9997538710729195,0.9995655922393596,
7.6923076923076925,0.9994643325081383,0.9997204071863647,0.9994473088877032,0.9998840588779876,0.9997332680925181,0.9993780914740189,0.9994966184475124,0.9997904591293018,0.9994853926300812,0.9995780853863732,0.9997545297261311,0.9995675333462578,
7.6190476190476195,0.999458676494099,0.9997376877609819,0.9994499377629616,0.9998865252530188,0.9997260295292293,0.9993772893276769,0.9995133340907986,0.9997997615367359,0.999498509723937,0.9995857691117698,0.999767525278639,0.9995633109967144,
7.547169811320755,0.9994743452798264,0.9997328093686141,0.9994738003091062,0.999888271195612,0.9997330941975302,0.9993858250061314,0.9995203674812186,0.999801218382668,0.9995188333645968,0.999578035831645,0.9997606565834992,0.9995825582686177,
7.476635514018691,0.9994963822433492,0.9997355869264387,0.999472573328634,0.9998850838205254,0.9997326218132637,0.9993849295269408,0.9995193032511008,0.999804853497921,0.9995025999725731,0.9995929194415966,0.9997735160863775,0.9995786432952687,
7.4074074074074066,0.9994902639663122,0.9997553208837829,0.9994811620108837,0.9998882170324399,0.9997459778932586,0.9993987370731316,0.999515708863053,0.9998034339966475,0.9995296699930676,0.9995971248610515,0.9997768448863601,0.9995778373658123,
7.339449541284404,0.9995023596370245,0.9997411620197618,0.9994854743577869,0.9998925372125061,0.9997353726338659,0.9994088334671781,0.9995328342124812,0.999800273523471,0.999520265503555,0.9996029675053056,0.9997725585658858,0.9995814161446223,
7.2727272727272725,0.9994961068959636,0.9997545122039393,0.9995003217733996,0.999887659223195,0.9997398536415634,0.9993889025742916,0.9995226317699756,0.9998065491218265,0.9995308399878827,0.9996092700513702,0.9997717814025059,0.9996030090406699,
7.207207207207207,0.999511609104255,0.9997475654014842,0.9995147101059964,0.9998902489940373,0.9997413177337336,0.9994151466293881,0.9995336654628613,0.999807717392106,0.9995285278658145,0.9996193902679977,0.999773189473079,0.9995974209573458,
7.142857142857142,0.9995132535345721,0.9997570778750576,0.9994921116054235,0.9998933225861989,0.9997499368424865,0.9994255624331009,0.999549253860523,0.9998106518216469,0.999534902631351,0.9996148426098167,0.9997808413866867,0.9996030809240851,
7.079646017699115,0.9995068107401576,0.9997556077393761,0.999507158009911,0.999891618661539,0.9997559866718497,0.9994439290496394,0.9995520773212214,0.9998098933390523,0.9995359050762794,0.9996237591429364,0.9997970266181936,0.9996279494844926,
7.017543859649122,0.9995352103471208,0.9997616342393216,0.9995320204831996,0.9998953816607871,0.9997582602190248,0.999444794184457,0.9995628771307854,0.9998208129633782,0.9995728904490071,0.999633144316796,0.9997944653090708,0.9996052611329324,
6.956521739130435,0.9995108107296478,0.99976836544574,0.9995250869583917,0.9998923357511765,0.9997571303197043,0.9994328284125401,0.9995675717435553,0.9998202306431678,0.9995564984463776,0.9996260723925069,0.9997928948657474,0.9996343780207678,
6.896551724137931,0.9995156724295399,0.9997667059652512,0.9995331007132661,0.9998944582533456,0.9997681937919379,0.9994496053084233,0.9995821854677475,0.999822681697282,0.9995667007735571,0.9996412050278947,0.9997971439109321,0.9996253087068564,
6.837606837606838,0.999535683892725,0.9997624626786623,0.9995283299684556,0.9999006906237503,0.9997709244243307,0.9994740521174941,0.9995762504552652,0.9998236753776403,0.999564879921973,0.9996338457848081,0.9997991610706671,0.9996281013257315,
6.779661016949152,0.9995426394040371,0.9997765588691057,0.9995312470551804,0.9999003472255245,0.9997756879836619,0.9994721940152163,0.999567629117738,0.9998160721356312,0.9995947594953969,0.9996425642034109,0.9998012104664153,0.9996200247627499,
6.722689075630252,0.999550304662559,0.9997788482059677,0.9995527212365614,0.9999005300263546,0.9997702181053022,0.9994676880760264,0.9995714114065691,0.9998120167722371,0.9995831482432261,0.9996552912896711,0.9998039528664998,0.9996229842209244,
6.666666666666667,0.999559764654613,0.9997869973517829,0.999546237612433,0.9999003792372085,0.9997730807847234,0.9994755486315674,0.9995827913066249,0.9998304592388937,0.9995807777989684,0.999655430195948,0.9998059396011149,0.9996291541475998,
6.6115702479338845,0.9995640927493091,0.9997645814126622,0.9995358746832793,0.9999071813841813,0.9997697123448083,0.9994780000002776,0.9995780693575144,0.999828131022725,0.9995876600223572,0.9996569568375666,0.9998105235601008,0.9996265036606917,
6.557377049180328,0.9995621258099859,0.9997714605270827,0.9995634688918746,0.9998973960775137,0.9997722322547555,0.9994849898437449,0.9995863049307866,0.9998268578878623,0.9995839645694363,0.9996589584542425,0.9998084833875385,0.9996383034208134,
6.504065040650407,0.999567960659054,0.9997933831980054,0.9995629021183917,0.9999040886956296,0.9997865057955962,0.9994873038881701,0.9995888733734211,0.9998296195067883,0.9996092502660342,0.999669521782195,0.9998231380992539,0.9996506799212322,
6.451612903225806,0.9995689102383909,0.9997972533481603,0.9995622733138473,0.9999079886360867,0.9997881893138043,0.9994979329972571,0.9996045059264986,0.9998411689336993,0.9996076426990569,0.999662079452687,0.9998180138285824,0.9996424777392303,
6.4,0.999583962905293,0.9997823179629728,0.9995815048529466,0.9999088535377647,0.9997839255963977,0.9994906184539124,0.9996034892782009,0.9998328878585307,0.9995836336213519,0.9996669995776716,0.9998122678192859,0.9996522575000486,
6.349206349206349,0.9995891199080263,0.9997741902626348,0.9995768532048999,0.9999036479888074,0.9997949758654701,0.9995144684616066,0.9996066982889434,0.9998375772775352,0.9996052289397966,0.9996819521821517,0.9998194266924855,0.999646317420554,
6.299212598425196,0.9995795447613658,0.9997891929327536,0.9995907615758202,0.9999103131968072,0.9997743205436804,0.9994926664704521,0.9995854360368088,0.999823055297374,0.9996007145381282,0.9996663497138872,0.9998172730664991,0.9996655040070209,
6.25,0.9995235660297567,0.999787913582701,0.9994945430923698,0.9999145654878694,0.9998137007868213,0.9995691108368799,0.9996794582616355,0.9998778030998982,0.9995760785342352,0.9996904367510988,0.9998207299665501,0.999677099289052,
6.2015503875969,0.9995781442237435,0.9997938730077129,0.9996090130584667,0.9999127282553061,0.9997821351981914,0.9995131812808671,0.9996033923247618,0.9998336184950046,0.999614559371224,0.9996747483442061,0.9998302458843461,0.9996841538866136,
6.153846153846154,0.9995943397326498,0.9998107979908977,0.9995826644493935,0.9999176556661327,0.9997893545389187,0.9995403823617267,0.9996232426636481,0.9998477508758605,0.9996052604074124,0.9996819446540941,0.999820363942125,0.9996511124014691,
6.106870229007633,0.9996093816703558,0.9997900394244473,0.9995869033048536,0.9999066122771899,0.999797201348488,0.9995287756002591,0.9996081422171531,0.999844131519617,0.9996219247353204,0.9996846350272697,0.9998286031454099,0.9996730178112159,
6.0606060606060606,0.9995961185417067,0.9998059919079565,0.9996079363330838,0.9999093867728609,0.9998067357805631,0.9995270222710835,0.9996266908252146,0.9998431865681011,0.9996430218677176,0.9996901036780516,0.9998220299337768,0.9996809246482953,
6.015037593984962,0.9996023100617195,0.9997960269790747,0.9995906676014865,0.9999154117102856,0.9997926920834787,0.9995370621162775,0.9996359977160036,0.9998448122934299,0.9996406130981872,0.999700210456363,0.9998251807780741,0.9996802337130712,
5.970149253731343,0.9996080301888273,0.9997991825476206,0.9995939862775532,0.9999134338364012,0.9998013962251167,0.9995274795909829,0.9996336929522217,0.9998438430797006,0.999625112032613,0.9996923004073821,0.99982435534453,0.9996757586241154,
5.9259259259259265,0.9996220074940327,0.9998010324578616,0.9995968386091241,0.9999157424605312,0.9997951889059695,0.9995470457183857,0.9996438278707139,0.9998494293784632,0.99963409450791,0.9996896023096444,0.9998197167933819,0.9996887196424827,
5.88235294117647,0.9996215089421034,0.9998139564874139,0.9996355093756212,0.9999194507160714,0.9998002865979639,0.9995481600471737,0.9996315070482189,0.9998488909565029,0.9996419741181182,0.9996964048918904,0.9998279320567447,0.9996860062815467,
5.839416058394161,0.9996264764196551,0.9998048923514069,0.9996218432108586,0.9999141018842735,0.999801819868433,0.9995516573258568,0.9996606048355293,0.9998507571017343,0.9996639156499527,0.9997033534752346,0.9998282702369983,0.9997028908241007,
5.797101449275362,0.9996302829574931,0.9998112585646235,0.9996118244878222,0.9999211279214345,0.9997968298626889,0.9995552486866724,0.9996398567305582,0.9998508916436561,0.9996670229050868,0.9997178185169473,0.9998310095831552,0.9996977041241726,
5.755395683453238,0.9996508614987536,0.9997997452646432,0.9996257029447725,0.9999184039129715,0.9998032522619089,0.999570494792161,0.999647391827287,0.9998666638369118,0.9996463053183707,0.9997042835214406,0.9998319757029205,0.9997055125336105,
5.714285714285714,0.9996382588325873,0.9998126513362988,0.999623956618576,0.9999171238490999,0.9998109051296674,0.9995682615023965,0.9996423041036234,0.999854380978745,0.9996465278594981,0.9997159758043045,0.9998308567470757,0.9996865319663368,
5.673758865248227,0.9996358116904934,0.9998132382359787,0.9996333020976833,0.9999197528939018,0.9998118617972638,0.9995737311508509,0.9996452717831377,0.9998577215436009,0.999655235749172,0.99971303936217,0.999839176811113,0.9997104309224265,
5.633802816901409,0.9996557446876279,0.9998159296406396,0.9996427761726414,0.9999221516916978,0.9998172712257793,0.9995729578204156,0.99965460054616,0.9998628902531917,0.9996550462591849,0.9997174637929702,0.9998411513989812,0.9997139110210674,
5.594405594405594,0.9996347191455689,0.9998039177542665,0.9996348358847442,0.9999170941215977,0.9998098122592705,0.9995753536696338,0.9996654671066042,0.9998566481241465,0.9996575013012863,0.9997187646489774,0.9998352117519759,0.9997173125895562,
5.555555555555555,0.9996525210290204,0.9998260072716832,0.9996515881952092,0.9999212931434689,0.9998167740748669,0.9995602791579228,0.9996563698108316,0.9998601709277452,0.9996651092039835,0.9997217940761121,0.9998381338308724,0.9997045233633938,
5.517241379310345,0.9996347823924742,0.9998226601141845,0.9996551341999546,0.999923687201801,0.9998247555195573,0.9995832080388936,0.999660093650585,0.999864771574579,0.9996675692628697,0.9997293125062381,0.9998513901028834,0.9997223864075206,
5.47945205479452,0.9996514895194403,0.9998280251947392,0.999656780594548,0.9999269329324674,0.9998344341993393,0.999598474050384,0.9997011231910972,0.9998733976004117,0.9996611350195583,0.9997286430583251,0.9998476001035438,0.9997241611860269,
5.442176870748299,0.9996368119498521,0.9998164823811716,0.9996406995949633,0.9999241335244711,0.9998325615151626,0.9995982950823538,0.9996808630227786,0.9998642428330933,0.9996752647980008,0.9997420089639099,0.9998544096216557,0.9997161345447187,
5.405405405405405,0.9996471726737776,0.9998348182864975,0.999651276013781,0.9999281334212515,0.9998207165021684,0.999591219579388,0.9996871202676404,0.9998733264019741,0.9996775859380919,0.9997432830048263,0.9998497557215483,0.9997285516083811,
5.369127516778524,0.9996585961910326,0.9998213868656474,0.9996570022826348,0.9999257494297283,0.9998281166282172,0.9996118873910469,0.9996844468929005,0.9998667153361762,0.9996838272804407,0.9997501258077405,0.9998535588694193,0.9997249391031693,
5.333333333333334,0.9996670947537543,0.9998344524456286,0.9996565482804671,0.9999289043556935,0.9998315137798002,0.999609413656899,0.9996723493613124,0.9998778744996598,0.999685295802593,0.9997398479341103,0.9998594787959358,0.9997324680994861,
5.298013245033113,0.9996655214720919,0.9998400743248932,0.9996604751443726,0.9999291938886905,0.999838783342986,0.9996022860735732,0.9996890799181499,0.999867734584048,0.999703877595539,0.9997575497905714,0.999857801547815,0.9997232937543605,
5.263157894736842,0.9996715079851269,0.9998333204128635,0.9996686101286496,0.9999283780538385,0.9998350366334123,0.9996248687846129,0.999692689991851,0.999868112979836,0.9996920114879595,0.999755837412065,0.999857866670763,0.9997191987148849,
5.228758169934641,0.999665189729842,0.9998327924110048,0.9996595525542659,0.9999270764624429,0.9998421104900002,0.9996095668225824,0.9996863115496649,0.9998764569928049,0.999702026977845,0.9997640726385804,0.9998626981546941,0.9997357549806054,
5.194805194805195,0.9996828260362726,0.9998293983605969,0.9996676326411313,0.9999265047223531,0.9998471421344283,0.9996305816711832,0.9996970817818497,0.9998796026673445,0.9996957169705021,0.9997441710409258,0.9998535669480463,0.9997305206543423,
5.161290322580645,0.9996719184495391,0.9998436356839605,0.999690173553289,0.999934586734814,0.9998454316898954,0.9996058042214947,0.9997006334877094,0.9998746014044828,0.9997119203734776,0.9997552508333339,0.9998634006141475,0.9997413595059569,
5.128205128205128,0.9996835365115261,0.9998314370481864,0.9996840527068196,0.9999312992255941,0.9998362666594409,0.9996252728104583,0.9997011671189253,0.9998746702432464,0.9996904512214124,0.9997482186796045,0.9998565733172472,0.9997575499830882,
5.095541401273886,0.9996841367561942,0.9998361169068882,0.9996707414468234,0.9999306566630356,0.999836172237779,0.9996268027990234,0.9997014067905261,0.9998752372699865,0.9997138431695685,0.9997528191219229,0.9998638359565031,0.9997414344530948,
5.063291139240507,0.9996866831298828,0.9998457767950263,0.9996843970966024,0.9999335155417489,0.9998376928133179,0.99960746276806,0.9996910959872136,0.999859934285348,0.9997133573603469,0.9997528359319968,0.9998529362947753,0.9997476172614634,
5.031446540880504,0.9996850943412735,0.9998325093184367,0.9996964465683182,0.9999290598702516,0.999832492827886,0.9996411570553353,0.9997165212259478,0.9998774540465564,0.9996982020040576,0.9997490649150613,0.9998597192854712,0.9997411334340464,
5.0,0.99968581716177,0.9998490018337216,0.9996839303986247,0.9999317627642483,0.9998428487755541,0.9996254434478344,0.999736689109858,0.9998938466312476,0.9997145253765541,0.9997637801348171,0.9998684816389475,0.9997484763262974,
4.968944099378882,0.99968510086781,0.9998485979901569,0.9996990558609372,0.999937625292239,0.9998468410947727,0.9996466296784785,0.9997124977523582,0.9998813899510361,0.999706301939005,0.9997520950718499,0.9998603266155385,0.999749177885378,
4.938271604938271,0.9997017372304514,0.9998382067045039,0.9996915949628897,0.9999308090522934,0.9998456887788514,0.999640807858934,0.9997190687226744,0.9998789004171239,0.9997154442112608,0.9997578032286747,0.9998655928772037,0.9997620942294911,
4.9079754601226995,0.9996931576061152,0.999856426599667,0.9996941965968918,0.9999329500002088,0.9998487986932871,0.9996384341726827,0.9997171955417778,0.9998800244063555,0.9997094476409593,0.9997596406018776,0.9998732741307533,0.9997416569968577,
4.878048780487805,0.9996951440316832,0.9998455508917038,0.9996923661390776,0.9999375170286284,0.999843636542269,0.9996482957185738,0.9997139520910676,0.9998755870436709,0.9997179680708436,0.9997719358850453,0.999869029950289,0.9997505975556694,
4.848484848484849,0.9997008792973686,0.9998496736401146,0.9996999385566492,0.9999328677859377,0.9998455387402083,0.9996442437903315,0.9997235951230927,0.9998874108030629,0.9997310216207523,0.9997687971712168,0.9998716956692851,0.9997651495150067,
4.819277108433735,0.9997144968448644,0.9998462784612904,0.9996913422088956,0.9999401255535239,0.999851870549756,0.999656522133494,0.9997219341840871,0.9998856597948862,0.9997123858808353,0.9997692801992708,0.9998660980801297,0.9997545673046561,
4.790419161676647,0.9997092925137497,0.9998522936976385,0.9996989704426639,0.9999384820394318,0.9998550408917457,0.9996480406288086,0.9997204659213248,0.9998896941586343,0.9997261528211737,0.9997757433684747,0.9998740753069201,0.9997760983780134,
4.761904761904762,0.9997205200622538,0.9998513142695257,0.9997028270945482,0.9999383434566708,0.9998441042142288,0.9996453553895575,0.9997245585096713,0.9998826345999985,0.9997133819992695,0.9997758020679508,0.9998682093463848,0.9997661904914339,
4.733727810650888,0.9997068646192475,0.999862330224766,0.9997104942417032,0.9999390345224568,0.9998564824226932,0.9996404661616778,0.9997371343375479,0.9998930035082232,0.9997366844045018,0.9997636354615633,0.9998828764329265,0.9997693393272034,
4.705882352941177,0.9996990093582182,0.9998638099178178,0.9997041038027088,0.9999407208046939,0.9998491689564589,0.9996697569052397,0.9997178147971613,0.9998786921964896,0.9997183200833212,0.9997739829469461,0.9998694806625071,0.9997598371106374,
4.678362573099415,0.9997004066372638,0.9998576472695327,0.9997156758502133,0.9999393727458856,0.999850827223047,0.9996679562911266,0.999736160151253,0.9998855585844169,0.999713808439348,0.9997763454448799,0.9998695125853306,0.9997555122440573,
4.651162790697675,0.9997148976151092,0.9998643128743289,0.9997020423340293,0.9999400874344114,0.9998636632295068,0.9996766785720442,0.9997381696500778,0.9998951186944729,0.9997398811590696,0.9997878784503362,0.9998744686824864,0.999784269508855,
4.624277456647398,0.9997031620793814,0.9998592546931616,0.9997007748978627,0.9999423753623345,0.999858733291485,0.9996785142043445,0.9997458083837851,0.9998951102984764,0.9997482611685018,0.9997738830018723,0.9998690081006983,0.9997599469682961,
4.597701149425287,0.9997296814637393,0.9998604436116237,0.9997140927072331,0.9999426508237232,0.9998554951630082,0.9996838914540238,0.9997367940077553,0.9999036060493351,0.9997254717216304,0.9997823407818593,0.9998840278305067,0.9997790646784686,
4.571428571428571,0.9997291217086167,0.9998633069788927,0.9997221274111593,0.9999417447243599,0.999859663660516,0.999685578732365,0.9997444863870812,0.9998920423413741,0.999755772654306,0.9997856074035247,0.999876676318879,0.9997762018849485,
4.545454545454546,0.9997252737899565,0.999864417379646,0.9997220589318484,0.9999423002400375,0.9998552483343268,0.9996725574061309,0.999750468801749,0.9999011996555428,0.9997489008096947,0.9997840694077191,0.9998750715444314,0.999785045195128,
4.519774011299435,0.9997185581020277,0.9998704134724691,0.9997267158406403,0.9999429335737112,0.9998594918263042,0.9996803587054542,0.9997488401181736,0.9998984324227733,0.9997481278070207,0.9997924609930967,0.9998807610364947,0.9997783835664312,
4.49438202247191,0.9997426706354126,0.9998680995873058,0.9997149983641481,0.9999451099734848,0.9998621761555323,0.999687460735757,0.9997585364475148,0.9999018236820135,0.9997356087063899,0.9997864870167756,0.9998797296150268,0.9997773071696092,
4.4692737430167595,0.999726399979366,0.9998624790295639,0.9997308586130763,0.9999423857691122,0.9998634143760537,0.9996837286242474,0.9997359245188844,0.9998901419661949,0.9997488551812004,0.9997874289019294,0.9998882399146719,0.9997723219853087,
4.444444444444445,0.9997432362675471,0.9998614672758398,0.9997271794976523,0.9999454067654603,0.9998674168640801,0.9996961747858503,0.9997657469433925,0.9998924999952756,0.9997630619392178,0.9997989055578299,0.9998867928779474,0.9997998073131582,
4.41988950276243,0.9997360658079785,0.9998757725446588,0.9997385578804749,0.9999403000914284,0.9998671514074206,0.9996793147604002,0.9997538005022061,0.9999023745240043,0.9997634306087533,0.9998060122017735,0.9998819461196912,0.9997832329303094,
4.395604395604396,0.9997413722560922,0.999871375386602,0.9997256421193306,0.9999392901240878,0.9998639908560831,0.999682158236223,0.9997492668750382,0.9998927909684147,0.9997698650562116,0.9998049258402928,0.999883817882963,0.9997957964216843,
4.371584699453552,0.9997488920768679,0.9998700612943633,0.9997364819879145,0.9999461162030391,0.9998709367494838,0.9996901577809332,0.9997574161022847,0.9998990085964677,0.9997562398530356,0.9997941507918436,0.9998833732430479,0.9997911029211424,
4.3478260869565215,0.9997519344769542,0.9998745425149713,0.9997564042994405,0.9999436051693913,0.9998742828205842,0.9996941069247277,0.9997642160779915,0.9998916434073434,0.9997676497419248,0.9997986258224807,0.9998846556825409,0.9997927714992636,
4.324324324324325,0.9997288217522617,0.9998668344327638,0.999748300496296,0.9999480297336006,0.9998754578330503,0.999697695347379,0.9997668238480885,0.9998954793781266,0.9997606337955404,0.9997954309106138,0.9998937666714793,0.9997969357385308,
4.301075268817205,0.9997627638571824,0.9998751994898805,0.9997618731265675,0.9999506501643002,0.9998684314565283,0.9997036027441899,0.9997731850445747,0.9999067107085662,0.9997709281944692,0.9998129187037869,0.9998881263826649,0.999807864984451,
4.27807486631016,0.9997619483877584,0.9998816547885121,0.9997475398745788,0.9999489243182283,0.9998800533204679,0.9997074801339118,0.9997640600627987,0.9998987580538885,0.9997667596782086,0.9998044014254563,0.9998896427961547,0.9998012584723468,
4.25531914893617,0.9997446728908234,0.9998797830397212,0.9997505240832932,0.9999428756205169,0.9998806875741979,0.9997198314999197,0.9997721088340928,0.999897274512925,0.9997833433085543,0.9998148001616904,0.9998953804017323,0.9998033570950843,
4.232804232804233,0.999744788005935,0.9998751948985477,0.9997483197586368,0.9999482903960795,0.999870553943746,0.9997186831900609,0.9997744759959389,0.9999103372407948,0.9997624866685353,0.999809996782931,0.999895102968857,0.9998008961646204,
4.2105263157894735,0.9997476270494854,0.9998898969052259,0.9997669775427653,0.9999478407306587,0.9998836410724948,0.9997282277684335,0.9997739658275736,0.9999112245878773,0.9997755480184535,0.9998107203778465,0.9998955514203083,0.9998062855876244,
4.18848167539267,0.9997527074423093,0.9998833647560292,0.9997612157870766,0.999948945815334,0.9998810068273069,0.9997098629389974,0.9997635819794021,0.9999100926871967,0.9997718811512827,0.9998144208000876,0.9998901571835778,0.9998109223058995,
4.166666666666666,0.9997593821589945,0.9998960074703184,0.9997335076126581,0.9999461851707904,0.9998910502733799,0.9997040230398426,0.9997765162080732,0.9999170241869768,0.9997787090453004,0.9998140215258013,0.9998946147238844,0.9998010266832944,
4.145077720207254,0.9997789445989937,0.9998767503635366,0.9997581486120425,0.9999465500609378,0.9998843535754955,0.9997201095621681,0.9997925939674899,0.9999035863716875,0.9997841089637509,0.9998203113086971,0.999895855212054,0.9998123925545594,
4.123711340206185,0.9997784521350096,0.9998818417212981,0.9997747035286428,0.9999503000508205,0.9998820611758725,0.9997165370804991,0.9997818357198953,0.9999087591835493,0.9997797715835941,0.9998239039718981,0.9999006167972639,0.9998133752097655,
4.102564102564102,0.9997780834040662,0.9998911534727546,0.9997781056524593,0.9999500778705973,0.9998888259215205,0.9997340934075373,0.9997867007036553,0.9999139779711722,0.9997887045728562,0.9998133168145551,0.9998981590896393,0.9998156888057381,
4.081632653061225,0.9997807662461075,0.9998807032027497,0.9997709371435701,0.9999516220331486,0.9998884134344919,0.9997264449709028,0.9997901411987538,0.9999149925746759,0.9997814036054348,0.9998175796674117,0.9999062427807188,0.999813570180872,
4.060913705583756,0.9997741990105474,0.9998883709470916,0.9997759310950118,0.9999502788110248,0.9998870229542768,0.9997346939376669,0.9997884319994851,0.9999112631827993,0.9997880538009433,0.9998243487404619,0.9998998177826204,0.9998241387482946,
4.040404040404041,0.9997815152453713,0.9998865495463234,0.9997789897591017,0.9999502337683283,0.9998871824599133,0.999736402593806,0.9997957095041476,0.9999125795219147,0.9997968615775086,0.9998276077515533,0.9999014502102038,0.9998229003636281,
4.0201005025125625,0.9997831193762329,0.9998828819877792,0.9997749233796266,0.999953416604279,0.9998843075046224,0.9997512274405709,0.9997957855828723,0.9999120584036708,0.9997870091850571,0.9998265399015359,0.999905727216159,0.9998197808695692,
4.0,0.9997865414165273,0.9998893314188128,0.9997828132276319,0.9999515224371144,0.9998844848060243,0.9997241537323732,0.9997915824683031,0.9999126418621895,0.9997868440704878,0.9998250293756061,0.9998983855897173,0.9998188315006603,
3.9800995024875623,0.9997885121012938,0.9998975016442505,0.9997773436426041,0.9999547323707929,0.9998885439083471,0.999751666567963,0.9998048837208277,0.9999160670635074,0.9997957447015545,0.999830532536336,0.9999038556951101,0.999815215752945,
3.9603960396039604,0.9997981274200265,0.9998924901116745,0.999780485237699,0.999953894953488,0.9998906265235125,0.999741267646696,0.9997955546362983,0.9999205923313472,0.9997982469348401,0.9998334240946831,0.999909397355064,0.9998310062295126,
3.9408866995073892,0.9997844624637635,0.9998976473912135,0.9997760980602767,0.9999563433232477,0.9998917729684413,0.9997417491281294,0.9998041974529461,0.9999202863269862,0.9998059308916781,0.99982861955991,0.9999077973834423,0.9998226574744542,
3.9215686274509802,0.9997890510125269,0.9998915285603044,0.9997977748766688,0.9999560121253478,0.9998937080570626,0.9997608179363938,0.9998017257246019,0.9999185032974637,0.9998029962279561,0.9998418527308289,0.9999071270022462,0.9998142642936169,
3.902439024390244,0.9997963100395707,0.9998895030213716,0.9997901132198959,0.9999499794463497,0.9998949646044286,0.9997451322971832,0.9997952557082992,0.99992086073451,0.9997998546740127,0.9998276125675856,0.9999095426897193,0.9998351722474864,
3.8834951456310676,0.9998050553799332,0.9998938370995986,0.9997876595415904,0.9999532267865802,0.99989231323734,0.999757542561941,0.9998077421118196,0.9999182176493098,0.9998042050329934,0.9998322045915912,0.9999091875430434,0.999826153939627,
3.864734299516908,0.9998004082589813,0.9998951316605004,0.9997842959848412,0.9999521692463375,0.9998963199457984,0.9997559598856869,0.9998076397227512,0.9999169463058242,0.9998130115097162,0.9998449482942278,0.9999107614825093,0.9998273915766883,
3.8461538461538463,0.9997946914704144,0.9998976608637231,0.9997985406283505,0.9999559902452442,0.9998942733608145,0.9997625282422716,0.9998223311746368,0.9999210272105707,0.9998076978517184,0.9998395497007915,0.9999116731759785,0.9998302686610314,
3.827751196172249,0.9998014039077551,0.9999031865413892,0.9997970803771234,0.9999565701308191,0.9998970569209086,0.9997531218791349,0.9998156831775016,0.9999228783546577,0.9998166536205176,0.9998405437677959,0.9999132313012782,0.9998293827504255,
3.8095238095238098,0.9997873832974735,0.9999043085029983,0.9998017156208467,0.9999561899484017,0.9999018744385797,0.9997534036819952,0.9998158813015023,0.9999260688068803,0.9998135868222833,0.9998440397687858,0.9999156250594258,0.9998478934660111,
3.7914691943127963,0.9997988014789857,0.9999002618121091,0.9998107306039538,0.9999543899504877,0.9999031850354725,0.9997665833674605,0.999815392406687,0.9999193760379348,0.999817123706531,0.9998519718017653,0.9999158774223842,0.9998420892324339,
3.7735849056603774,0.9998001103666135,0.9999040644849769,0.999797531782966,0.999956555498218,0.9999073385619363,0.9997665355945542,0.999821762727577,0.9999283041607222,0.9998266513525705,0.9998454082631961,0.9999137210804907,0.9998502447033383,
3.755868544600939,0.9998030224790482,0.9999034898064431,0.9997994303946736,0.9999578322851403,0.999899039220023,0.9997633116073266,0.9998254631563883,0.9999297276996988,0.9998182651539875,0.9998557983459395,0.9999154094869622,0.9998414772651237,
3.7383177570093453,0.9998188008729886,0.9999018004603366,0.9998040132835805,0.9999582559004181,0.9999009015793706,0.9997833093468911,0.9998154891705541,0.9999256186277079,0.9998281018868939,0.9998503661453711,0.9999163733026689,0.9998444637216863,
3.7209302325581395,0.9998135304502906,0.9999069707383542,0.9998157515684929,0.9999596179896928,0.999902102360029,0.999769983652648,0.9998232357147615,0.9999246759822894,0.9998273894591014,0.9998562818377886,0.999918590961198,0.9998503937895763,
3.7037037037037033,0.9998078275777105,0.9999037784170994,0.9998160695351207,0.9999596167891008,0.9999039381832582,0.9997874767010527,0.9998261921277526,0.9999261675844268,0.9998166030822666,0.9998565353124775,0.9999183008089744,0.9998432726181763,
3.686635944700461,0.9998025505480339,0.9999124874020955,0.999817543690023,0.9999559319135115,0.9999065792832514,0.9997796685556783,0.999824492375364,0.9999251061442676,0.9998211037440218,0.9998591844805839,0.9999221192911099,0.9998526694026915,
3.669724770642202,0.9998144271530927,0.999906575985244,0.9998195893800202,0.9999602903779217,0.9999106331200934,0.9997760048474037,0.9998347579570477,0.9999311904008323,0.999827142832911,0.9998620018331849,0.9999188243301566,0.9998519545020094,
3.65296803652968,0.9998203866996315,0.999912439490965,0.9998128678023283,0.9999588262661577,0.9999086631000071,0.9997858165632066,0.9998372110850007,0.99993874986564,0.9998339304183675,0.9998615732446482,0.9999208536304003,0.9998495115036219,
3.6363636363636362,0.9998239456146759,0.9999042244978732,0.9998184781413277,0.9999608541770482,0.9999099313112487,0.9997922462053026,0.99983007203919,0.9999325483787617,0.999833390805761,0.9998645120140477,0.9999200688544532,0.9998557081632521,
3.619909502262444,0.9998059643673876,0.999907292563402,0.9998248969911923,0.9999568168021012,0.99991094323825,0.999793859793077,0.9998382264450217,0.9999357433629004,0.9998318167071175,0.9998618679151063,0.9999229419250119,0.9998583005235346,
3.6036036036036037,0.9998120766478477,0.9999080630035424,0.9998099900283981,0.99995915277512,0.9999117021364312,0.9997859407343702,0.999836051904656,0.9999299694618209,0.9998424684013405,0.999861919040311,0.9999248994602857,0.999862252328602,
3.587443946188341,0.9998144509995011,0.9999172570933028,0.9998103296405998,0.9999624922450027,0.9999170443481121,0.999796175643205,0.9998381708068216,0.99993073057035,0.9998314853868155,0.9998722151460421,0.9999249341147451,0.999846417879876,
3.571428571428571,0.9998219129484323,0.9999181185919843,0.9998241481039594,0.9999578950816154,0.9999196116151892,0.999800777771736,0.9998424558137404,0.99993377187307,0.9998548407066836,0.9998683153145791,0.9999267594522215,0.9998680422279196,
3.5555555555555554,0.9998253857510276,0.9999157126400043,0.9998247248763765,0.9999625180457493,0.9999156006835406,0.9997859033752311,0.9998305786469553,0.9999262836549543,0.999843857185362,0.9998676618970562,0.9999283340933394,0.9998553620878043,
3.5398230088495577,0.9998274057807028,0.9999166185127663,0.9998203062093525,0.9999627092595835,0.9999169049365463,0.999799394248482,0.9998441179162966,0.9999372313257987,0.9998538470240607,0.9998693027410404,0.99992269348851,0.9998556827507633,
3.524229074889868,0.9998343729673327,0.9999136635260206,0.9998320385625034,0.9999635778168456,0.9999140382303687,0.9998118531537077,0.9998420082846242,0.9999314188771037,0.9998379773013527,0.9998719402269469,0.9999281416348673,0.9998593482847872,
3.508771929824561,0.9998279467055027,0.9999155552900387,0.9998312611875112,0.9999626679392895,0.9999131467953581,0.9997994282016812,0.999836568955088,0.9999369804199758,0.9998415072116377,0.9998767507814301,0.9999268993922603,0.9998632911481355,
3.4934497816593884,0.9998278521519279,0.9999139354110921,0.9998315158384394,0.9999660514112358,0.9999137214229866,0.9998055277493205,0.9998478106009562,0.9999389153052883,0.9998516983215553,0.9998668175413769,0.999927987826265,0.999867862126663,
3.4782608695652173,0.9998338688906043,0.9999179729424441,0.9998328256389553,0.9999620000636608,0.9999130329719025,0.9998013342199543,0.9998432485762384,0.9999383185000467,0.9998456728405453,0.9998739877346513,0.9999287411183024,0.9998688371915543,
3.463203463203463,0.9998366395971875,0.9999106766238444,0.9998258600839259,0.9999654459825225,0.9999140388024783,0.9998143806686922,0.9998520044733636,0.9999357156610099,0.9998398037469225,0.9998688183853772,0.9999279998830198,0.9998643184180477,
3.4482758620689653,0.9998393943392931,0.9999200526650234,0.9998379581995422,0.999963633343683,0.9999161020051478,0.9998063387443509,0.9998352712554754,0.9999362387601983,0.9998362506658253,0.9998760578065712,0.9999245987523278,0.999866236174769,
3.4334763948497855,0.9998373701002291,0.9999245633102143,0.9998390124318537,0.9999635699251683,0.9999252326123598,0.9998099912134826,0.9998521939613777,0.9999359996472628,0.9998520825276069,0.9998756198556429,0.9999307649797738,0.9998585599228453,
3.418803418803419,0.9998382725521876,0.9999172328850567,0.9998356634241433,0.9999657656618445,0.9999184424368577,0.9998050331753696,0.9998471719850155,0.9999376643583346,0.999854287361728,0.999872782539251,0.9999287982651861,0.9998654704202665,
3.404255319148936,0.9998449086995433,0.9999164808295674,0.9998354718781851,0.999964555297271,0.999920089178213,0.9998133896440545,0.9998552449881807,0.9999376712261119,0.9998535604103569,0.9998778891188299,0.9999338917229689,0.9998690473817492,
3.389830508474576,0.999844875146356,0.9999146833210065,0.9998389866081219,0.999967327542887,0.9999164810666198,0.9998183622403293,0.9998555480987323,0.9999398355175311,0.9998517385481923,0.9998758481481247,0.9999266422504101,0.9998745644703535,
3.375527426160337,0.9998386504920179,0.999924554327284,0.9998398606015724,0.9999663576660748,0.9999219187363516,0.9998146397509654,0.9998575923237408,0.9999441416244869,0.99985343241296,0.9998781544028169,0.9999313109427944,0.9998779238137548,
3.361344537815126,0.9998354221898194,0.9999239148893335,0.9998490352950906,0.9999678120063804,0.9999232239978583,0.9998134336469668,0.9998637728857137,0.9999437492480959,0.9998533829739189,0.9998799864577657,0.9999310096804656,0.9998825757226896,
3.3472803347280333,0.9998513200955601,0.999927418388953,0.9998379830865883,0.9999654244362838,0.9999201955133772,0.9998257205339457,0.9998586086722501,0.9999404386484542,0.999855478783536,0.99987879739085,0.999932622924191,0.9998784204645373,
3.3333333333333335,0.9998483195414503,0.9999215187498184,0.999849129627806,0.9999653961568006,0.9999241536200925,0.9998115615962796,0.999861891203208,0.9999394193658135,0.9998476304708327,0.9998748429640374,0.9999334876457552,0.9998744586107834,
3.319502074688797,0.9998542605743165,0.9999227142874861,0.9998471956782604,0.9999679700729266,0.9999233625798053,0.999826049487233,0.9998646360009577,0.9999453835085592,0.9998527998097311,0.9998836152829986,0.9999344341034202,0.9998719841385859,
3.3057851239669422,0.9998529547317705,0.9999208122027804,0.9998535569353912,0.9999674644999552,0.9999280016313045,0.9998230062778793,0.9998549300254963,0.9999411458135607,0.9998539184349592,0.9998815946150377,0.9999347658595622,0.9998728799796771,
3.292181069958848,0.9998578459018127,0.9999193923004763,0.9998470867956071,0.9999691004210514,0.9999186061166635,0.9998219629023076,0.9998540268133285,0.9999457142400088,0.9998554577180345,0.9998785732175802,0.999930481545939,0.9998830042301072,
3.278688524590164,0.999852823621444,0.999927550499124,0.9998522418987896,0.9999673500421716,0.9999211433819845,0.9998289002043933,0.9998641382656093,0.9999434779760763,0.9998617303644942,0.9998861802909444,0.999935390094985,0.9998797465089745,
3.2653061224489797,0.999845586540057,0.9999258300414227,0.9998517163471553,0.9999693705317122,0.9999198386334657,0.9998197076190066,0.9998596633539979,0.9999379999650408,0.9998597998050114,0.9998788010998398,0.9999360134565323,0.999881312818342,
3.2520325203252036,0.9998536810394736,0.9999194669518576,0.9998512471142466,0.9999642663116082,0.9999228917089856,0.9998263734717122,0.9998608141963823,0.9999367163288237,0.9998737752256756,0.9998825312502114,0.9999309525446471,0.999880058723444,
3.2388663967611335,0.9998501495762833,0.9999279939727133,0.9998627248853805,0.9999664097768012,0.9999228235264982,0.9998313316214767,0.9998663068220223,0.9999463371759388,0.999864238481886,0.9998846851084653,0.9999348700322954,0.9998802851830089,
3.225806451612903,0.9998612522088592,0.9999292246351915,0.9998542321563109,0.9999669009435272,0.9999258325143995,0.9998344735642362,0.9998581488685809,0.9999408102850262,0.9998682071242668,0.9998865661296144,0.9999361203176282,0.999886922498777,
3.2128514056224895,0.9998593894255957,0.9999314887299456,0.9998548215888388,0.9999686471806285,0.9999276653442589,0.9998230328632413,0.9998614225534519,0.9999468254091538,0.999857086341316,0.9998850854494343,0.9999336328446307,0.999888604429452,
3.2,0.9998586332577356,0.9999299601436664,0.9998566084824988,0.9999696168601457,0.9999288823255207,0.9998345254539774,0.999869135350989,0.9999462670290519,0.9998790808102298,0.9998899201218007,0.9999387791663908,0.9998849733261631,
3.187250996015936,0.9998597759774738,0.9999306357754449,0.999859657660473,0.9999679389635054,0.9999298405129313,0.999829849114956,0.9998676970855996,0.9999465724190411,0.9998663555943546,0.999892339562446,0.9999386567205146,0.9998814989279629,
3.1746031746031744,0.9998558639954164,0.99992467557436,0.9998591816748397,0.9999670028637915,0.999928946576897,0.9998369712736943,0.9998669648240963,0.9999438315473161,0.9998572659806126,0.9998915499447715,0.999933505868329,0.9998857850941811,
3.1620553359683794,0.9998585311300413,0.999934643147613,0.9998562599839669,0.9999709586708122,0.9999321780365815,0.9998355014295615,0.9998747354247123,0.9999466165754549,0.9998712545270111,0.9998945050122791,0.9999375656408551,0.9998904387986332,
3.149606299212598,0.9998680016224588,0.9999310553696141,0.9998618074675988,0.9999703924732791,0.9999322489086975,0.9998307463064356,0.9998670859778549,0.9999433961531036,0.9998784911501725,0.9998944204983579,0.9999397408912246,0.9998898311608018,
3.1372549019607843,0.9998590712814803,0.9999303134925147,0.9998570683693675,0.9999710119236299,0.9999307790533669,0.9998392837034201,0.9998720728076651,0.9999468863744682,0.9998701799619821,0.999891581876568,0.9999382464465445,0.9998878378935661,
3.125,0.999865698994897,0.9999315834993887,0.9998646037421666,0.9999703459131218,0.9999258587065931,0.9998386298441716,0.9998624859174353,0.9999410526928103,0.9998700730312324,0.9998945976309176,0.9999362105451735,0.9998880279460356,
