,Airplane.bmp,BARBARA.bmp,BOAT.bmp,BRIDGE.bmp,Building.bmp,Cameraman.bmp,girl.bmp,LAX.bmp,LENNA.bmp,Lighthouse.bmp,Text.bmp,WOMAN.bmp,
100.0,0.9379903694085624,0.9659103995132946,0.9365903890047795,0.9849950567690637,0.969401410253205,0.9269766009356951,0.9384181787107692,0.9728766546066248,0.939774222306471,0.9513898721997806,0.9731967144347636,0.945615751620659,
88.88888888888889,0.9526470023106474,0.9745982101372873,0.9518557870841978,0.9887444997604796,0.9761921330176703,0.9442403077288467,0.9538189320918644,0.9798978937941593,0.9542532216135258,0.9628606767822416,0.979261069859106,0.9591052417874184,
80.0,0.9597582369355733,0.9783912324976255,0.9588055451487862,0.9904646425409681,0.9798017655653233,0.9522276196832924,0.9604709546180702,0.9830748642645671,0.9612726061491101,0.9684194100189518,0.9824465018082091,0.9653709142761314,
72.72727272727273,0.9656931612275889,0.9820310908203478,0.9650365241118706,0.9920607468294047,0.9828255537169645,0.9595626381332603,0.9671581472790808,0.9858418460915296,0.9674853730625944,0.9734313030368523,0.9849595527528677,0.9710667465931216,
66.66666666666666,0.9700018732580953,0.9843713586820574,0.9693526723499122,0.9930383512269136,0.9850020821152219,0.9646493684875099,0.9711075579736396,0.9878214370606648,0.971277904107257,0.9764601655115961,0.9868011908016517,0.9747164334929094,
61.53846153846154,0.9727762742039837,0.9856461983091176,0.9721350211798051,0.9935622916097898,0.9861698356227849,0.9677350074582453,0.9735508509891456,0.9888203164027574,0.9739376267829938,0.9784379424015988,0.9878434609615403,0.9768690612170156,
57.14285714285714,0.9751519049309973,0.9870385190169731,0.974556117779752,0.9941603221069125,0.9874105725517164,0.9701778295517052,0.9759643273188278,0.9899205890979691,0.9765082795128941,0.9801168281944789,0.988966347004776,0.9789230457198477,
53.333333333333336,0.9769790136177428,0.988042358354347,0.97661152492365,0.9947026622889864,0.9882557150775059,0.9728065459967425,0.9781726762385721,0.990585719018109,0.9782875030143174,0.9819742207377904,0.9898771748943308,0.9806670773313712,
50.0,0.9787990720519485,0.9893437118102048,0.978744028515341,0.9951656216823135,0.9894540047143655,0.9751679767698103,0.9801850300480242,0.9916092398508036,0.9801327595609857,0.9837215145081428,0.9908647821054202,0.9823183028913548,
47.05882352941176,0.9808700742554368,0.9900685756114884,0.9803692193890885,0.9956239047151381,0.9902541942028298,0.9772198727454765,0.9817702796818489,0.9922462867396956,0.9818451591189102,0.9850277179418665,0.9914679013367933,0.9838129526330948,
44.44444444444444,0.9823426781016672,0.9909240639021214,0.9822074988701293,0.9959435717533877,0.9910374804743562,0.9790261253613682,0.9833545077600545,0.9928789808346569,0.9834776069693093,0.9860053212023685,0.9922359322240389,0.9853517862407984,
42.10526315789473,0.9837333585582615,0.9916365393454325,0.9837114527748125,0.996218456682843,0.9918572397691108,0.9808657149216731,0.9847252866132629,0.9934645205209129,0.9847403315149539,0.9872514170403809,0.9928386253079646,0.9865485392334233,
40.0,0.9852044041584422,0.9924236883824132,0.9850578571679581,0.9966283256763202,0.9925405845475354,0.98226330214128,0.9859436888345453,0.9939811085703076,0.9859495428086337,0.9884586449091336,0.9934779363971143,0.9876646024892988,
38.095238095238095,0.986301234049856,0.9930544018982728,0.9861698133923497,0.9968950387493102,0.9930763768748395,0.9839575749804366,0.9871896232657565,0.9945642370495789,0.9871827638688662,0.9893981693485578,0.9940196607582584,0.988827582152213,
36.36363636363637,0.9874647551560098,0.9936731264507151,0.9874064364710029,0.9971820586904528,0.9936866319405577,0.9853040766583897,0.9881843005520351,0.9950257567498288,0.9881414888621309,0.9903062891116917,0.9945260078734952,0.9897146534815182,
34.78260869565217,0.9881511120155386,0.9940217446342731,0.9881991988648994,0.9973154864272518,0.9940065279176962,0.9860123323668912,0.9887931507242125,0.9952901310912162,0.9889208220684652,0.9907179890490996,0.9947418426460063,0.9900884645168697,
33.33333333333333,0.9885764108770377,0.9942004605158046,0.9884177908659081,0.9974399766550497,0.9942455579592158,0.986614483097625,0.9892846839388789,0.9954767787459046,0.9891777890241615,0.9911264035402901,0.9949780164223284,0.9906637515860389,
32.0,0.9891510704593532,0.9944193066554383,0.9890390750910113,0.9975446195448682,0.9944325531848357,0.9873377845320996,0.9896876710898677,0.9956855678162779,0.9896987708637305,0.9914203511268339,0.9951498161740199,0.9910377827681791,
30.76923076923077,0.9894228612315691,0.9946775667257659,0.9895246755120337,0.9976389390447498,0.994703941986315,0.9877050307873537,0.9901677555756458,0.9958618612160984,0.9899857982755726,0.9917522392828514,0.995425643491715,0.991387863740782,
29.629629629629626,0.9899387953691429,0.9948970640646868,0.9896793511086488,0.997729724656186,0.9948472627783477,0.9881279442885332,0.9903946206635476,0.9959749230335786,0.9906609837918341,0.9920389066298297,0.9955115638178883,0.9916474308358887,
28.57142857142857,0.9902451257188123,0.9951118404695917,0.9900405213368496,0.9977650323054044,0.9951559468419684,0.9884838736506716,0.9908741447940577,0.9961388712357999,0.9908564309724843,0.9924394662576197,0.9956981103197581,0.9919519091590383,
27.586206896551722,0.9906096804243698,0.9952734536993529,0.9905535951615324,0.9979053155486902,0.9952268882941993,0.9890015966813647,0.9911760710286098,0.9963251414278664,0.9911438556579394,0.9927411485224052,0.9958501823168905,0.9923382079203144,
26.666666666666668,0.9911188023354086,0.995460523809724,0.9909119645794057,0.9979735357640114,0.9954211877422189,0.9893141435711849,0.9914529541645447,0.9964727835662193,0.9914758134844112,0.9929525879525096,0.9960002841619462,0.992658472296637,
25.806451612903224,0.9913404681513165,0.9955735511091468,0.991240792449998,0.9980269091052273,0.9955520624844301,0.989535189413488,0.9918079001579735,0.9965520831218104,0.99171526818582,0.9931787521873262,0.9961360344403741,0.992808322534614,
25.0,0.9914631448670258,0.9960345132492875,0.9910383801369621,0.9980537390833046,0.9958748231102059,0.9899198718660113,0.992186250991894,0.9966997298484866,0.9921193918668123,0.9934409603950735,0.9965797524892851,0.9930379226811017,
24.242424242424242,0.9919479769121123,0.9957886306674341,0.9917775577591323,0.9981562390271952,0.9958091887018995,0.990383023493883,0.9923439848397902,0.996767503123006,0.992392236668071,0.9936358272954456,0.9964001246958526,0.9932842422124776,
23.52941176470588,0.9921084584724467,0.996021393194177,0.992045099719935,0.9982358892264512,0.9959287556408073,0.9906355509740371,0.9924540873671496,0.9968723199797439,0.9926255168617768,0.9937055196927591,0.9964348951717246,0.9934758048722111,
22.857142857142858,0.9923491416793409,0.9961053718434527,0.9921829995268124,0.9982875253247596,0.996071129733487,0.9908958814155113,0.9926155795188021,0.996976462936874,0.9927749266191531,0.9939277026069422,0.9965545908274475,0.9937091725805874,
22.22222222222222,0.9925279966285208,0.9961597426709943,0.99240820371662,0.9982977725010345,0.9961806367106266,0.9912077428542567,0.9929829878159773,0.997093582455773,0.9929567921477019,0.9941587300523101,0.9967200092304443,0.9938191231895709,
21.62162162162162,0.992710282797443,0.9963054856698997,0.9927191755508932,0.9983595701011649,0.9964239017877204,0.9914463824940037,0.9932356143771647,0.9971384103021531,0.9932507076245083,0.9943404012118624,0.9968000840092516,0.994095092470397,
21.052631578947366,0.9929182207182778,0.9963852509499939,0.9929217975812147,0.9984074900296522,0.9963720784076816,0.9916860040575843,0.9933963157633906,0.9971985613494052,0.993425497868538,0.9945086684211307,0.9969005128084033,0.9942355633847647,
20.51282051282051,0.9932425633675952,0.9964725630937795,0.9931328557662631,0.9984969306915128,0.9965571586179801,0.9918784826567347,0.9935160997068305,0.9973227939098526,0.9936032522354435,0.9946674349455108,0.9969803931928782,0.9943428435701249,
20.0,0.9933541186048997,0.9966959740463958,0.9932907290196643,0.9985132238257941,0.9966169878304169,0.9921161258172267,0.9937364494042948,0.9973264366801866,0.9937530640570066,0.9947623598861327,0.9970689212733094,0.9943947898888753,
19.51219512195122,0.9934808070405007,0.9967597524214965,0.9934401140706373,0.9985493084481718,0.9965444290451673,0.9922688028303629,0.9938740681250748,0.9974661833720594,0.9938830381067469,0.9948654695144099,0.9970861205639785,0.9945690131419141,
19.047619047619047,0.9937433004967757,0.996837166004946,0.9936275862921766,0.9985692724554015,0.996787943755502,0.9925470348407286,0.9940340416775798,0.9975198008037176,0.994047676368204,0.9950287564891861,0.9971632206670001,0.9948047115224328,
18.6046511627907,0.9939264605744071,0.9968455487439596,0.9937981583588663,0.9986089266978802,0.9969585588691091,0.9928026009780925,0.9941947743990429,0.9975915361731169,0.9942415295295317,0.99528109665324,0.9972959690490193,0.994959667930738,
18.181818181818183,0.9940222067539246,0.9969614959284757,0.9940009327215967,0.9986790525397835,0.9968811960207051,0.9928604722621607,0.9943024656242762,0.9976244039401985,0.9944025280996222,0.995305912496004,0.9973021888854948,0.9950055667744445,
17.77777777777778,0.9940239972115229,0.997026820360735,0.9940249439633035,0.9986741728032179,0.9969948981228395,0.9931272374522411,0.9945624140901456,0.9976808517415238,0.9944614798442517,0.9953656085915031,0.9973946689052515,0.995215367296106,
17.391304347826086,0.9942783842809808,0.9971180922453828,0.9941562375762658,0.9987224565986395,0.9970941536541705,0.9931697267715626,0.9946948772975804,0.9977735612315757,0.9946482408654367,0.995451291962653,0.9974111495031278,0.9952923928436636,
17.02127659574468,0.9943924982592974,0.9971784954149451,0.9943843782080093,0.9987456957035351,0.9971349640008426,0.9935184965193233,0.9947738576349819,0.9978078679833435,0.9947686532678482,0.995626825532621,0.9974961464769649,0.9954535161696842,
16.666666666666664,0.9944692961576099,0.9972737520206038,0.9943896457168222,0.9988135309872059,0.9972277631443652,0.9935339970408591,0.9947803546101269,0.997897046387622,0.9949266217602322,0.9957277490467157,0.997620323295711,0.9954922249604109,
16.3265306122449,0.9946419949645516,0.9973182656960307,0.9945476864512458,0.9988218091231151,0.9972181094182302,0.9936694720065774,0.9949941812475339,0.9978982928675753,0.9949639356276567,0.9957859464904323,0.9976171380457706,0.9956195251023999,
16.0,0.9948638812789372,0.9973563726405976,0.9947806307818143,0.9988414307796754,0.9973804691510584,0.9938123964112875,0.9951163423461586,0.9979708296792714,0.9951517498272221,0.99586195264222,0.9977252557671,0.9956582810522508,
15.686274509803921,0.9949793290830279,0.9974444935661637,0.9949031784879536,0.9988377941156957,0.9974840656876615,0.9941134714528439,0.9952484362864833,0.9980211587887147,0.9952430865487497,0.9961895508977618,0.9977820335279253,0.9958765326547669,
15.384615384615385,0.9950961993074507,0.9975253565828472,0.9949759750021372,0.9988917739036305,0.9974813224455469,0.9941909048829364,0.9953418553660723,0.9980637041440568,0.9952920163115668,0.9960954368041169,0.9978300326045951,0.9960219232364418,
15.09433962264151,0.9952105722327468,0.9975407863905034,0.9950724924183171,0.9988959920642749,0.9974853230155853,0.9942414392632821,0.995480626867984,0.9980735115727813,0.9953322950951073,0.9961727060195966,0.9978281402201676,0.9960849721798725,
14.814814814814813,0.9952627092695132,0.9975850780495804,0.995129098605278,0.9989458027938368,0.9974996554861116,0.9944198339020578,0.9955357724088618,0.9980998479990159,0.9955515788605279,0.9962115417837891,0.997787924815079,0.9960317088682289,
14.545454545454545,0.9952815088540352,0.9976118204313045,0.9952865010747576,0.998946555194737,0.9976314531893401,0.9945414202848039,0.9955485253728805,0.9981545161269425,0.9955756881347662,0.9963046686582744,0.9979292182059205,0.9960947529991977,
14.285714285714285,0.9954540932099831,0.9976379659870296,0.9953079272117646,0.99899594153237,0.9976132024873746,0.9945871707658894,0.9956791716321104,0.9981668920715661,0.9956897258118074,0.996307142227932,0.9979075966716839,0.9961987990070716,
14.035087719298245,0.9954690464977766,0.9978016986437331,0.9955885225610928,0.9990109475722362,0.9977144785163014,0.9947582083566441,0.9958166370475626,0.9982520075668505,0.9958460426262186,0.9964119546140258,0.9979727313547418,0.9963406637821447,
13.793103448275861,0.9955807294836979,0.9977820322337071,0.995501444187891,0.9989742537491808,0.997731603144841,0.9947769397415038,0.9959021729227995,0.9982631680617851,0.9958691865937438,0.9964723197283116,0.9980214378972339,0.9963771485430754,
13.559322033898304,0.9957077292360168,0.997805092030913,0.9956014091056851,0.9990337294627492,0.9977781092839815,0.994922878098529,0.9959481929060051,0.9982989308393475,0.9959394660452286,0.9965995552659221,0.9980499671214312,0.9964945379116008,
13.333333333333334,0.9957519455538011,0.9978451877290156,0.9957278964911844,0.9990734148288974,0.9978294100156753,0.994946316453356,0.9959562693121409,0.9983464197107216,0.9960214800593833,0.9966477522435782,0.9980595134018496,0.996588221407512,
13.114754098360656,0.9957889327744004,0.9979241332342332,0.9958334435496065,0.9990448392209262,0.9978189294602142,0.9950727436319945,0.9960774584364234,0.9983505857464925,0.9960354633365441,0.9966708188644674,0.9980716201503387,0.9965772422069499,
12.903225806451612,0.9959147106194464,0.99783548041692,0.9958303711990509,0.9990689169355157,0.9978716261237759,0.9951780090564886,0.9961569976088429,0.9983752629827074,0.9961568409702053,0.9968369189046038,0.9981927924566265,0.9966047321749123,
12.698412698412698,0.9960131643921036,0.9979875278265955,0.9958555365795215,0.9990895510385486,0.997939640278493,0.9952261789733737,0.996181115130904,0.9984100899105233,0.9962213225817826,0.9968741726914914,0.9981982636934694,0.9967414966623973,
12.5,0.9959601645810889,0.998305889573551,0.9955524392380767,0.9991330204910576,0.99822777243835,0.9953078580891588,0.9963307422998103,0.9988100916171564,0.9962344666470939,0.9968021793150751,0.9983881672674705,0.9969448595906627,
12.307692307692308,0.9961309510805036,0.9980441719841169,0.9960292293656753,0.9991086627779966,0.9980188989322807,0.9953106964569387,0.9963784734733542,0.9985092952222404,0.9963758479825234,0.9970213812976207,0.9982554006580279,0.9967651102008374,
12.121212121212121,0.9962125747973538,0.998051625843908,0.996084310570444,0.999133851506098,0.9980343713756126,0.9954480293835314,0.9963610710305177,0.9984880062701544,0.9964787545349193,0.9970114141967238,0.9982694313720918,0.9969434502635125,
11.940298507462686,0.9962131378340008,0.9980706341323045,0.9961469608892536,0.9991430884116078,0.9981138257133279,0.9954938443276174,0.9964467208885395,0.9984973013610918,0.9965234415896337,0.9970472041845206,0.9982986435569561,0.996900095403926,
11.76470588235294,0.9963206358245853,0.9981579175096974,0.9962818140887406,0.9991699289763822,0.9980652867982915,0.9955843418419604,0.9965371071086554,0.998563751568885,0.9965380138431781,0.9970509732228219,0.9983290061413376,0.9969696397243695,
11.594202898550725,0.9963454027415465,0.9981396800308833,0.9963403671879313,0.9991862594256672,0.9980775408712633,0.995731834415767,0.9965526360289113,0.9985423252224078,0.9966134808678361,0.9971147136689128,0.9983986502198744,0.9970305836468499,
11.428571428571429,0.9963346750964814,0.9981754785887399,0.9963092888699406,0.9991908482188687,0.9981731867269958,0.9957292362101545,0.9965783527256814,0.9985882574420846,0.9966606223096495,0.9972011131454197,0.9984183553636631,0.9970854091223729,
11.267605633802818,0.9964392763152742,0.9981946291440857,0.9963718537157262,0.9991986545164108,0.9982099816377435,0.9958277602381148,0.9967013307981336,0.9986083401400303,0.9967446521391594,0.9972739759615751,0.9984568762922252,0.9970823929875855,
11.11111111111111,0.9964514872310599,0.9981958509189729,0.9964099846197769,0.9992368344045836,0.9982067137572347,0.9958967863276578,0.9967733448115199,0.9986473494788711,0.9967137397319914,0.9972975827210374,0.9984936616395911,0.9971488196497118,
10.95890410958904,0.9966403365594819,0.9982814252710893,0.9965012462991771,0.9992425756965687,0.9982444660164647,0.9960935518629574,0.9968015931314518,0.9986891006834216,0.996687183204925,0.9973372299980722,0.9984830479662505,0.9970926372419112,
10.81081081081081,0.9965860395847598,0.9983347735424735,0.9966077064623351,0.9992571088857883,0.9982871456513066,0.9960590433161786,0.9968700346930809,0.9986694130221501,0.9968961747534762,0.9974172391734607,0.9984953992495335,0.9972395200601806,
10.666666666666668,0.9966669688344731,0.9983036137762403,0.9966850037752368,0.9992686112919248,0.9983177113328022,0.9960303237025107,0.9968435598553279,0.9987328581397477,0.9968606028586868,0.9974249094668944,0.998512131908947,0.9973334833655906,
10.526315789473683,0.996684356633143,0.9983652746130786,0.9966874211778329,0.99929304748192,0.9983231519141647,0.9961815079066719,0.9969222795676618,0.9987085082054216,0.9968961778778501,0.9973904087106514,0.9985287385562227,0.9973910631059146,
10.38961038961039,0.9967745506526802,0.9982760155835246,0.9967105053934106,0.9992720111704297,0.9983466659292621,0.9961901439646775,0.996885055721976,0.9987090713371208,0.9969490710743714,0.9975065210103194,0.9985593546515354,0.9974030818829671,
10.256410256410255,0.9968175721353342,0.9983724333089269,0.9966962233416471,0.9992962621098378,0.99844234553909,0.996218978183617,0.9970625644256814,0.998780054488032,0.9970492993748351,0.9975612769070705,0.998565976067257,0.9975109937180148,
10.126582278481013,0.9968848495791623,0.998419979882027,0.9967646201873963,0.9992980326151029,0.9984101102870861,0.9963213562650893,0.9970085185101084,0.9987941389282534,0.997073092105159,0.9975752271761821,0.9986277543848336,0.9974392457113125,
10.0,0.9968515685737143,0.9984459637290435,0.9967737411304302,0.999315833763224,0.9984812001851467,0.9963705972341468,0.9971781548654209,0.9987921256029062,0.9971332544686803,0.9975726669961029,0.9986433253274501,0.9974592402909711,
9.876543209876543,0.9969490658402604,0.9984777430743206,0.9969720394880761,0.9993224400839837,0.9984287491765982,0.9963216686473044,0.9971547369876473,0.9988405875684051,0.997178106328506,0.997615713308152,0.9986885728758685,0.9975713098669028,
9.75609756097561,0.9970473672047252,0.9985254261113846,0.9969279893703737,0.9993376281340886,0.9984412232495335,0.9963789868573268,0.9972171682828629,0.9988070446258979,0.9971564898466625,0.997650929700794,0.9987080396357256,0.9975610929979916,
9.63855421686747,0.9969691191636109,0.9985297748848349,0.9969561917509892,0.9993598341816917,0.9985033606721921,0.9964648554173516,0.9972217015131117,0.9988605697808693,0.9972661974380128,0.9976732236858653,0.998674868551722,0.9976076879070126,
9.523809523809524,0.9971400352540589,0.9986197089502264,0.9970291554121539,0.9993820669927789,0.9985078223848906,0.9965411141819077,0.9973164649371444,0.9988809471609499,0.9972408185418259,0.9977802488019799,0.998721584221014,0.9975964888374954,
9.411764705882353,0.9970124077372519,0.9987102700073675,0.9971678840246654,0.9994012722950077,0.9985428403219125,0.9966862634382436,0.9972227330565318,0.9988106832255573,0.9972054855162606,0.9977745584461726,0.9986993564817446,0.9977188984323501,
9.30232558139535,0.9972286306470669,0.9985988892716032,0.9971321287481323,0.9993694946744228,0.9985869657540268,0.9967211991340098,0.9974290164397013,0.9989772443253745,0.9974217581189854,0.9978693624339552,0.9987404078469752,0.9977810022268025,
9.195402298850574,0.9972517445965869,0.9985996801806176,0.9972723764688842,0.9993662254530228,0.9985293525968991,0.9967417264208098,0.9973645511245703,0.9988457185646092,0.997387534047604,0.9978156912291873,0.9987023171745049,0.9977118165273763,
9.090909090909092,0.997257808143011,0.9986480804343512,0.9972166750051541,0.9993787205745188,0.9986133609715161,0.9966957873307212,0.997433140907794,0.9989251964604496,0.9973936497654907,0.9979052624475302,0.9987986293321023,0.9977994273191534,
8.98876404494382,0.9972306896565106,0.9986780647934587,0.9973490506257097,0.9994037221826434,0.9986520860795007,0.9967692620242194,0.9975086789449621,0.9989056843749665,0.9974317268725211,0.9979088845293632,0.9988115705230726,0.99779106649734,
8.88888888888889,0.9973079911821656,0.9986262199832734,0.997250111811729,0.9993925961169773,0.9985935636885341,0.9968789063601795,0.9975771711572349,0.9989482240890484,0.9975270265693044,0.9978933424140132,0.9987884916621151,0.997879929021293,
8.791208791208792,0.997367116638357,0.9986577825265199,0.9973943864168239,0.9994139186501407,0.9986677412744458,0.9969610546403155,0.9975610551805316,0.9989659452028727,0.9976106934330866,0.9979597083978441,0.9988331380284161,0.9979075668509592,
8.695652173913043,0.9974154392338794,0.998714240163851,0.9974546168024615,0.9994222646051969,0.9986951662200739,0.9969986178248751,0.9975796994635455,0.9990179356436014,0.9975487045540202,0.9980175395644096,0.9988580169833493,0.9979484219271813,
8.60215053763441,0.9974254111873728,0.9987221224407536,0.9974271666369973,0.9994247828438767,0.9986860973827382,0.9970106022145556,0.9976924545910959,0.9990451951773538,0.9975900060089391,0.9980044742673901,0.9988859665671531,0.997869047067797,
8.51063829787234,0.9975176199987416,0.9987589496973946,0.9975257622443656,0.9994498312838004,0.9986933747353112,0.9969379183100053,0.99764735227498,0.9990209853946185,0.9976574286361509,0.9980219611560147,0.9988755582906657,0.9979206191352678,
8.421052631578947,0.9975184653386284,0.9987792609678515,0.9974603923251265,0.9994499301649687,0.998710337669127,0.9970817194106169,0.9976987144471625,0.999043781066055,0.9976955192680222,0.9980558552589125,0.9988584640855401,0.9980193565482168,
8.333333333333332,0.997539602367555,0.9989088726106252,0.9973719409704045,0.9994680995109851,0.9987575249325197,0.9970780144505622,0.9977591429093755,0.9990416040976919,0.9977083925214884,0.9980933083378148,0.9989819497324608,0.9979392336664905,
8.24742268041237,0.9975940016954967,0.9987754633227994,0.997506666280876,0.9994795967396208,0.9987134128544708,0.9971086175582341,0.9976991562889378,0.9990400242492783,0.9977349158115083,0.9981312610401294,0.9989023435830937,0.9980084113115303,
8.16326530612245,0.9976099100467646,0.9988180335761608,0.9976198427249745,0.9994925221459731,0.9987827807624152,0.9971341398732982,0.9977325627182734,0.9990530367990202,0.9977941750595886,0.9981616624421182,0.9989498223983851,0.9980575874405266,
8.080808080808081,0.9976564502620302,0.9988240558700132,0.9975626651648185,0.9994793551559863,0.9987549890934301,0.9971606471503064,0.9978071969721857,0.9990930864289911,0.9977908413075761,0.9981173614521992,0.998939350770096,0.9980666372989698,
8.0,0.9976800701219823,0.9988157308966272,0.9976651860720064,0.9994812495843702,0.998784991135887,0.9972471005167589,0.9978370034350112,0.9990710699600375,0.9977788573149533,0.9981751334237372,0.9989338828549371,0.9981221132601823,
7.920792079207921,0.9977320357857634,0.9988414173437428,0.9976956201829309,0.9995072244111555,0.9987921315261323,0.997276101144138,0.997842028325785,0.9991011782323977,0.997804668447935,0.998279091984565,0.9989758250072771,0.9981291105108583,
7.8431372549019605,0.9977839111618885,0.9988848899113073,0.9976995169809968,0.9994616903096596,0.9988732838860824,0.9973061867320518,0.9978473550242215,0.9991015802683975,0.9978832244743363,0.9982903755215731,0.9989802027637048,0.998144520207497,
7.766990291262135,0.997738446764112,0.9988567522447354,0.9976251458237616,0.9995040304858588,0.9988684603085427,0.9973918863316721,0.9978741300251228,0.9991042363383346,0.9979219089091689,0.998152595486556,0.9990199529360311,0.9981877263655399,
7.6923076923076925,0.9977460399112454,0.9988679144195384,0.9976885665053082,0.9995170702315659,0.9988722748923486,0.9974146724868761,0.9979653150053629,0.9991296303158964,0.997869344670423,0.9982834730124245,0.9990570353311273,0.9981945857037464,
7.6190476190476195,0.9978129334578474,0.9989308758609452,0.9977425027086534,0.9995075272951868,0.9988758239548624,0.9973807368474819,0.9979626299405278,0.9991505665780468,0.9978828756131057,0.9982553953626713,0.9990110363894225,0.9981661035192562,
7.547169811320755,0.997815434819795,0.9989074362138745,0.9977724643972268,0.9995283162862497,0.9988782214346394,0.9974466898925182,0.9979975956154347,0.9991867173730874,0.9979349295612929,0.9982427515629371,0.9990056136230144,0.9982349298749952,
7.476635514018691,0.9978526432602645,0.9988912189849719,0.9977909125413278,0.999520279324254,0.9988537539689131,0.9973823581449406,0.9979691305443185,0.9991514522676458,0.9979642498329825,0.9982842911225003,0.9990575300591417,0.9982295261072012,
7.4074074074074066,0.9978746322775646,0.9989575414179931,0.9978441995662655,0.9995314610553112,0.9989105248460001,0.9975062138168236,0.9979666173221371,0.9991665619963225,0.9980297607548575,0.9983510017151221,0.999058035651263,0.9982380483781489,
7.339449541284404,0.9979129846420398,0.9989497298150998,0.9978674274688363,0.9995270792477121,0.9989362618361274,0.997537187246724,0.9980273077843871,0.9991792205638799,0.998029124102996,0.9983459202678582,0.9990544170642291,0.9983130664257798,
7.2727272727272725,0.9979404875520398,0.9989562564428865,0.9979521435375195,0.9995275654007056,0.9989371954972753,0.9975202184080955,0.998037822904299,0.9992035979750228,0.9980618233098499,0.998393329071624,0.9990380358647825,0.998389053375472,
7.207207207207207,0.9979721241201237,0.9989578623350158,0.9979740849354161,0.9995464412532352,0.9989678514257809,0.9976114245158413,0.998027599368491,0.9992157299328579,0.9980535797095849,0.9984124068602108,0.9991123795484543,0.9983354411147375,
7.142857142857142,0.9980616428482761,0.998983591235683,0.9979468996332798,0.9995413397413723,0.9989673323059766,0.9976316966292903,0.9980931555025456,0.9991739080471305,0.9980952189612787,0.9984487784028198,0.9990911968894229,0.9982887045927911,
7.079646017699115,0.9979081579549297,0.9989992903831905,0.9979440515104832,0.9995451946475095,0.9989664750711759,0.9976086034529027,0.9981179205955785,0.9992143812091904,0.9981417983964515,0.9984346629316506,0.9991071251390713,0.9984030251454399,
7.017543859649122,0.9980180833201692,0.9989867541195785,0.9980387249849692,0.9995433496466354,0.9989678706471858,0.9976750694926201,0.9981058461206194,0.9992084689311034,0.9981699151941377,0.998468722207808,0.9991261005196356,0.9984470075052303,
6.956521739130435,0.9980619569106064,0.9990170183493196,0.9980500550680329,0.999544733971595,0.9989795937220072,0.9976194884169268,0.9981820690549237,0.9992072236199313,0.9981876163538712,0.9984367219811813,0.9991487084045878,0.9983856073676476,
6.896551724137931,0.9980428021857436,0.9990647810953088,0.9980496170666451,0.9995525184124596,0.9990152780093509,0.9977685693429856,0.998221732239577,0.9992540493534068,0.9981791542974949,0.9984657553034013,0.999159574552305,0.9984567333813535,
6.837606837606838,0.9980468741319407,0.9990122331135894,0.9980671833834124,0.9995622553249383,0.9990676867484786,0.9977872688652251,0.9982116056955701,0.9992750370852936,0.9981507095881852,0.9984795726272264,0.9991567873324184,0.9984436486170111,
6.779661016949152,0.9980600184559639,0.9990542675888842,0.9980686484959602,0.9995757729000228,0.9989980341268124,0.9977349049880148,0.9982177449449217,0.9992711164574043,0.9983196234387528,0.9984798790170379,0.9991427908643157,0.9983969124052434,
6.722689075630252,0.9980899059880218,0.999066567323467,0.9980787775428186,0.9995595152679496,0.9990581886767056,0.9977334850093289,0.9981962177625624,0.9992319088161175,0.9982720988188994,0.9985175964254003,0.9991744601759037,0.9984447091004102,
6.666666666666667,0.9981224640330374,0.9990995136646691,0.9981432204956805,0.9995770877212274,0.9990414020262821,0.9977361891971516,0.9982242291809241,0.9992788368052269,0.9982191654619784,0.9985096532461359,0.9991641891991587,0.9984777915938645,
6.6115702479338845,0.9981638617968396,0.9990498308373545,0.998145250381092,0.9995809979603633,0.9990507172044882,0.997739124156913,0.9982303921676671,0.9992146815305792,0.9983373162139024,0.9985855976907055,0.9991924708159876,0.9984737527577804,
6.557377049180328,0.9981705788955902,0.9990664342777524,0.9981680418720768,0.9995826247093677,0.9990573908455043,0.9978108018880848,0.9982102261433844,0.9993014628825004,0.9982738937155511,0.9985854388654359,0.9992047822236539,0.9984947099446704,
6.504065040650407,0.9981629657652646,0.999101524228607,0.9982006159733547,0.9995838881385101,0.999052167042349,0.9978945130724007,0.9982617792427064,0.9992609118575059,0.9983538726959178,0.9985858095167561,0.9992052659792002,0.998538601654788,
6.451612903225806,0.9981763772542552,0.9991033399886832,0.9981728096687652,0.9996187497562198,0.9990929815102844,0.9978981860566193,0.998368121585428,0.9993149635720847,0.9983361536858611,0.9985930934888352,0.9992309715263853,0.9985201400156395,
6.4,0.9982523569658737,0.9991276406407802,0.9982476980076107,0.9996009236479364,0.9991191675466209,0.9977964572217857,0.9982465148970971,0.9992867270305523,0.9983130874957035,0.9986146506114115,0.9992138307731212,0.9985370132306745,
6.349206349206349,0.9982253742688018,0.999046554278792,0.9981776826790238,0.9995853629243521,0.9990901229023406,0.9979492493345098,0.9983162192366126,0.9992790034202312,0.9983739090089079,0.9986477941244819,0.9992431897645659,0.9985854256593182,
6.299212598425196,0.9982134814030956,0.9991578993112827,0.9981734858330854,0.9995965072177787,0.9990665230795894,0.9979438899548532,0.9983210933649442,0.999314089396092,0.9983268293730233,0.9986081118877088,0.9992357817958799,0.998607201650868,
6.25,0.9980780866949377,0.9991312004521449,0.9978955943257948,0.9996427949007178,0.9992510412740194,0.9982319824431104,0.9987284410653964,0.999499691651028,0.998204885390134,0.9986770407841019,0.999260471066959,0.9986018802643825,
6.2015503875969,0.9982678801572389,0.9991598868084305,0.9983735691643316,0.9996197618264373,0.9991163295310515,0.9979493698267423,0.998314353506834,0.9993096433719276,0.9983939331889433,0.9986472202289565,0.9992501753895792,0.9986745174796395,
6.153846153846154,0.9983445654929869,0.9992057401565432,0.998288017557273,0.9996346191232154,0.9991508479283456,0.9980592128836785,0.9984019495642289,0.9993470090055546,0.9984064052281302,0.9986688852747507,0.9992706280468207,0.9985724233361134,
6.106870229007633,0.9983190127704091,0.9991958232091254,0.9982908937286255,0.9996219383979756,0.999155140133129,0.998126956916469,0.9984296897360461,0.9993811720941881,0.9984742708594652,0.998673615813473,0.9992746447198577,0.9986116461580535,
6.0606060606060606,0.998300669486424,0.9991983112272598,0.9983199373443588,0.9996120970759746,0.9991411000993123,0.9980403688456322,0.9984973222900344,0.9993447294365855,0.998459402693553,0.9986743424965362,0.9992580594295523,0.9986765666165821,
6.015037593984962,0.9983989087448737,0.9990995376120301,0.9983243502403298,0.9996347842764381,0.9991753971964807,0.9981111954541216,0.9985611365099581,0.9993463588186953,0.9984720193296365,0.9987262215509299,0.9992912615901355,0.9986638565183176,
5.970149253731343,0.9983958528995147,0.9991728446538354,0.9983753185815462,0.9996277152331654,0.999171269966224,0.9980635493856798,0.9984988997891642,0.9993801183825934,0.998496370772444,0.9986946884352379,0.9992657433233345,0.9986735962056212,
5.9259259259259265,0.9984099515309877,0.9992043863102454,0.998378586416475,0.9996496652946705,0.9991754877070405,0.998118017890869,0.9984833894584977,0.9993878691152669,0.9985265189676727,0.9987004520159758,0.9992722314658445,0.9986822549156682,
5.88235294117647,0.9983875105687348,0.9992013832138407,0.998448402431965,0.9996589155471592,0.9991951012317483,0.9980493581350913,0.998494262650163,0.9994042055748455,0.9985692665396322,0.9987160736765177,0.9992904062162241,0.9986850627130185,
5.839416058394161,0.9983973502630094,0.9991955803266058,0.9984380613800168,0.9996657400462653,0.9991828025357681,0.9981354188272764,0.9985745246521041,0.9993737460537807,0.9985261312967231,0.9987642749075325,0.9992737482451626,0.9987565546159654,
5.797101449275362,0.9983686846903281,0.9991856935905035,0.998356287078577,0.999653120918536,0.999121575249572,0.9981870947632465,0.9985685399298772,0.9993709807740887,0.9985913450318482,0.9987815720604885,0.9992946651667101,0.9987441277513444,
5.755395683453238,0.9985229714072237,0.9992049317282224,0.998395543645602,0.9996652897005722,0.9991991157264731,0.9982207819816497,0.9985073998037977,0.9993783894472541,0.9984864859019184,0.9987837355804913,0.9993039963955234,0.9987161658988034,
5.714285714285714,0.9985092069185066,0.9992291267835739,0.9984856254525128,0.9996449378576667,0.9992357565290008,0.9981984388135302,0.9986130901996018,0.9994093289677916,0.998554142349656,0.9988374818110158,0.9993148675225417,0.9987775465724045,
5.673758865248227,0.9984980936554815,0.9992463452085072,0.9984469052094153,0.999665175174281,0.999242924647432,0.9982441279281901,0.9985558204568448,0.9994083949433965,0.9985678560996081,0.9988338880686279,0.9993503806269542,0.9987860072314938,
5.633802816901409,0.9985417050518536,0.9992404538192381,0.9985717669630403,0.9996806574824053,0.999260620316421,0.9982348344890593,0.9986147272242111,0.9994299416542158,0.9985701374725358,0.9988192763860553,0.9993540206657721,0.998784394425603,
5.594405594405594,0.9985210724300041,0.9992663697127419,0.9984694387217699,0.9996605941462838,0.9992175061782832,0.9982132322035177,0.9985833434278316,0.9994253252779853,0.9985511766619576,0.9988076816020547,0.9993497413018418,0.9987270007747141,
5.555555555555555,0.9985279590481266,0.9992622756685684,0.9985240883001145,0.999663978068949,0.9992451251593675,0.9982294381235742,0.9986037079776078,0.9994375267803136,0.9985597334169687,0.9988686083179635,0.9993383986643327,0.9988012374155539,
5.517241379310345,0.9985599172848032,0.9992578400967261,0.9985456374248454,0.9996734647732658,0.9992479037166865,0.9982821158996904,0.9986058747470433,0.9994538008489711,0.998599786133908,0.9988676047182203,0.9993714000784802,0.9988318763822875,
5.47945205479452,0.9985887895580234,0.9993025847998689,0.9985552215420498,0.9996910438643383,0.9992790222554894,0.9983070454402051,0.9987265326020498,0.9994439289874839,0.9986681350531381,0.9989437564246995,0.9993666041000505,0.9988307757943403,
5.442176870748299,0.9985697678105111,0.9992635843183841,0.9985760063481234,0.9996907769488408,0.9992867016261959,0.998348911481202,0.9986692001093279,0.9994659272297651,0.9986849422227164,0.9989458834090802,0.9993886892612875,0.9988911375506657,
5.405405405405405,0.9986041639984009,0.9993007907789825,0.9985908162882157,0.9996844208320407,0.9992714296705587,0.9983457244705437,0.9986546321056792,0.9994494504763711,0.9986804617592664,0.9989310559320089,0.999365300910795,0.9989038837431296,
5.369127516778524,0.9986430882181986,0.9993084888233317,0.9985730563769545,0.9997037134109402,0.9992992823243609,0.998381915130365,0.9987058034942433,0.9994607797000311,0.9986777277723689,0.9989369152362595,0.9994046770084621,0.9988956668632605,
5.333333333333334,0.9986732726701854,0.999284865311399,0.9985963454299153,0.9996831164428054,0.9993134908240043,0.9984369227559196,0.9987467585761985,0.9994907293607691,0.9987335671244545,0.9989532205730088,0.9994121121327522,0.9989168033480903,
5.298013245033113,0.9986216794578898,0.9993450576630073,0.9986273377827845,0.9996957008983823,0.9993397899230683,0.9984505699923689,0.9988111666245599,0.9994996084660173,0.9987361201399818,0.9989725354119028,0.99941103739938,0.9989018436174487,
5.263157894736842,0.9986750296450838,0.9992985105885036,0.9986925141949262,0.9997048851339467,0.9993058110075473,0.9984439245107343,0.9987405021956227,0.9994711743321741,0.9987395925585395,0.9989832310219827,0.9994053987745456,0.9988833884963289,
5.228758169934641,0.9987266744004141,0.9993375258784234,0.9986083089031241,0.9996858665259162,0.9993176158978552,0.9984398459595446,0.9987198772812548,0.9994639724703988,0.9988064304823125,0.9989938297263966,0.999429513198886,0.9988914092686351,
5.194805194805195,0.9987205781551031,0.9993271207939737,0.9986420938697721,0.9997103150537789,0.9993435253775307,0.9984866696596225,0.9987509910962974,0.9995168887726336,0.9987525131478587,0.9989362612600379,0.9994024516816002,0.9989134089043354,
5.161290322580645,0.9987225889793108,0.999353049854555,0.9987071451911698,0.9997022754718888,0.9993257661680545,0.9983872024410898,0.9986994334581553,0.999475953969802,0.998819539352646,0.9990217041335963,0.9994470028398442,0.998956451255654,
5.128205128205128,0.9987636784176288,0.9993453931010283,0.9987291802219403,0.9997133300555077,0.9993582561981557,0.9985310217004298,0.9988316655217082,0.9995358973337674,0.9987576945930718,0.9989994756768363,0.9994341841676203,0.9989897369112342,
5.095541401273886,0.9986922017595417,0.9993396929667575,0.9987415242461752,0.9997058016703366,0.999358170787776,0.9985073547552907,0.9987917808290085,0.9994860757077655,0.9987829944735359,0.9990205415442139,0.9994524008356009,0.9989458204194218,
5.063291139240507,0.998736392960288,0.9993609409472969,0.9986530048124218,0.9997133589095815,0.9993981182251778,0.9984829073852702,0.9987596170822266,0.9994800185080221,0.9988348227964412,0.9990353843357795,0.9994375297096789,0.999015084128933,
5.031446540880504,0.9987743751699145,0.9993858084243965,0.9988008216138468,0.9997213252498202,0.9993538711963568,0.9985324059228866,0.9988126751322172,0.9995019901897233,0.998842182248627,0.9990383170741568,0.999453068134801,0.9989116954661159,
5.0,0.9987255334054308,0.999412331527066,0.9987347656994883,0.9997204842397598,0.9993543509116362,0.9985035538898053,0.9989072618402439,0.9995538118745563,0.9988485736384176,0.9990048221695215,0.9994707350079685,0.9990244201987192,
4.968944099378882,0.9987338103062695,0.9993843052722644,0.9988043238692632,0.9997260608513803,0.9993785663359054,0.9985284743852801,0.9988673777778332,0.9995105364067514,0.9987949956160957,0.9990273096284673,0.9994345996408353,0.998985896029674,
4.938271604938271,0.9987648014924332,0.9993666360344211,0.998743298553498,0.9997297682032666,0.9993631388055901,0.9986032491937421,0.9989035094489089,0.9995101618006337,0.9988931496324961,0.9990428054138333,0.9994726717975652,0.9990060676807392,
4.9079754601226995,0.9987730976522498,0.999398736691926,0.9988278803739397,0.9997374671565772,0.9993763648967282,0.9985529152385716,0.99889377169215,0.9995414255513022,0.9988362589118689,0.9990388512692469,0.9994737077640884,0.9989824692101699,
4.878048780487805,0.9987516491982334,0.9993918583469543,0.9987979450804941,0.999744393213491,0.9993862585487594,0.9985516529644537,0.9988517344767442,0.9995242424389594,0.9988831373061742,0.999033009238149,0.9994640736816839,0.9989985954197349,
4.848484848484849,0.9988884304897656,0.9993892739615847,0.9987493113250588,0.9997382786013851,0.9994103450200086,0.9985599926314512,0.99885200035431,0.999524401024931,0.9989366828523907,0.9990715752861313,0.9994802075023792,0.9990151962897954,
4.819277108433735,0.998812202209647,0.9994033927046746,0.9988639549611724,0.9997550782200437,0.9994179202808227,0.9986340050062108,0.9988924842226558,0.9995502084409992,0.9988278400654051,0.9990838997678946,0.9994963434101429,0.9990462715331035,
4.790419161676647,0.9988617878541679,0.9993955190224022,0.9987948037475882,0.9997449981842078,0.9993989494912906,0.9986490820278897,0.9989031556501324,0.99952778036529,0.9989299813230796,0.9991362446719865,0.999489998026223,0.9990256698249779,
4.761904761904762,0.9988820635556687,0.9994324343084366,0.9988464518552695,0.9997415631585063,0.9994016441472026,0.9986310375391456,0.9989334617232388,0.9995583309747222,0.9989294083570697,0.9991541966630648,0.9994761893883064,0.9990291597708122,
4.733727810650888,0.9988322693236259,0.9994411499889609,0.9988254315761863,0.9997310944070209,0.9994325268221428,0.9986443650151426,0.9989247769236905,0.9995747516135531,0.9989255153559259,0.9991032741123599,0.9995068200837033,0.9990551324847106,
4.705882352941177,0.9988555802625083,0.9994402336800065,0.9988299918548303,0.9997589411566706,0.9994125848796889,0.9987046565222272,0.9989054642973995,0.999537800469084,0.9989069321874159,0.999092341154648,0.9994589934165529,0.9990310827829808,
4.678362573099415,0.9988791851819919,0.9994549402085452,0.9988724222337938,0.9997477916196146,0.9993923511012118,0.99870826608966,0.9989269927753379,0.9995128421954127,0.9988744977830215,0.9991190084623661,0.9994936332891932,0.9989820829936963,
4.651162790697675,0.998937237798736,0.9994368572764558,0.9988395540431642,0.9997610031846637,0.9994151060111852,0.9986538048812329,0.9989178793543365,0.9995747242896333,0.9989741672658425,0.9991460470691362,0.9994974297042929,0.9991014131780396,
4.624277456647398,0.9988439262505345,0.9994514815682768,0.9988507980874319,0.9997699040611602,0.9994443149848291,0.9986791560479936,0.9989879715867861,0.9995603577035184,0.9989603049220532,0.9991242573981133,0.9994856976839848,0.9991159824694316,
4.597701149425287,0.9988756563683421,0.9994478463138725,0.9989054292333057,0.9997630105448394,0.99937989572201,0.9986545289314979,0.9989592975098501,0.99954125344475,0.9989264691948155,0.9991522078758467,0.9995012151483238,0.99915271623485,
4.571428571428571,0.998914347869872,0.9994533577324423,0.9989151722480069,0.999758622243107,0.9994190014118396,0.9986718571319494,0.9989918411655919,0.9995779450644605,0.9990586272256483,0.9990980290864308,0.9995174291318187,0.9991344966575213,
4.545454545454546,0.9989140425460489,0.9994493487634147,0.9988611745542337,0.999763013762861,0.9994390009510329,0.9986853127671763,0.9989902099511796,0.9995858072315866,0.9989714422636873,0.9991377499483768,0.9995024341135994,0.9990989743055249,
4.519774011299435,0.9989199622816445,0.9994564630068248,0.9988756583423468,0.9997736749650774,0.9994517633961884,0.9987828345201955,0.9990370665625656,0.9995720683693251,0.9990285885659399,0.9991250694028898,0.9995322014149856,0.9990729061990115,
4.49438202247191,0.9989521982669685,0.9994510209447978,0.9988638699952349,0.9997670615724739,0.9994189766417371,0.9987095088402018,0.9990213580413699,0.9995857048923833,0.9989311682438581,0.9991652615697306,0.9995009912628721,0.9991124388230319,
4.4692737430167595,0.9990043321490677,0.9994494002278613,0.9989010201847662,0.9997535489920665,0.9994408392221278,0.9987600495040205,0.9990061784838251,0.9995645059119731,0.9989784527108658,0.9991411627422185,0.9995078049014168,0.9990699519093825,
4.444444444444445,0.9989200164541959,0.99946036979451,0.9989055378214287,0.99976523807495,0.999454544788062,0.9987703406738117,0.9990102537490745,0.9995719099074866,0.9990041374331413,0.9991674141860561,0.9995130037365388,0.999164196892287,
4.41988950276243,0.9990127033307301,0.9994725311458758,0.9989787970931245,0.9997606386188077,0.999454136499494,0.9987647119678915,0.9990202806692899,0.999603399243351,0.9990515678034709,0.9991576905969946,0.999521796094209,0.9991754020020717,
4.395604395604396,0.998952239801363,0.9994570451826491,0.9989037734727131,0.9997701183740991,0.9994751950710058,0.9987111167937176,0.998996561659429,0.999597177757016,0.9990007736722376,0.9991946601212115,0.9995400836536216,0.9991598241691262,
4.371584699453552,0.9989509964611566,0.9994532381213247,0.9989751187601079,0.9997853168044343,0.9994675642679971,0.9988010797586522,0.9990842948039923,0.9996237751065863,0.9990439530101634,0.9991905399558474,0.9995278670795351,0.9991452983847444,
4.3478260869565215,0.9989963536966562,0.9994814160261003,0.9989737808522872,0.9997724561448728,0.999479933820518,0.9987621035195406,0.9990696581086056,0.9996070310669186,0.9990591539645991,0.9991969600284413,0.9995305029980579,0.9991953799422209,
4.324324324324325,0.9989651559400621,0.9994895048788571,0.9989697146490671,0.999782384102931,0.9994810314328165,0.9988173221206417,0.999050045995449,0.9995781967849572,0.9990284624945269,0.9992168885398037,0.9995499867323158,0.9991890691518698,
4.301075268817205,0.9989755273360754,0.999528101813608,0.9989976530288838,0.9997700763743369,0.9994961654734048,0.9988232248086035,0.9990789045872223,0.9996181264292062,0.9990793549900576,0.9992264738417468,0.999559347801723,0.999196074179661,
4.27807486631016,0.9989680075252613,0.9995076148859792,0.9989764065263452,0.9997713915891455,0.9994946188477625,0.9988272921683438,0.9990420002289612,0.9995904863040598,0.9990430991992718,0.9991996555586541,0.9995326250581752,0.9991683252142397,
4.25531914893617,0.9989908579373851,0.9995100399585709,0.9989599138490534,0.9997544072428692,0.9995162973695823,0.9988760303183919,0.9990867942968332,0.999623405973085,0.9990443970927967,0.9992155494199007,0.9995619289892543,0.9991564408353666,
4.232804232804233,0.9990430147121955,0.9994778971723451,0.9990076023144693,0.9997735912786331,0.9994941998883996,0.9988534654776645,0.9991050678835063,0.9996203360862538,0.9990419997579074,0.9992718856922974,0.9995751739899769,0.9992256953195975,
4.2105263157894735,0.9989847733905285,0.9995152536008364,0.9989844380726385,0.9997856574096914,0.9995276452553059,0.9988982817115519,0.9990801162664438,0.9996377429516368,0.9990634321720455,0.999262822330158,0.9995660525985789,0.9991963204573939,
4.18848167539267,0.9990585404667757,0.9995259233858611,0.9990662164374186,0.9997760922830856,0.9995264237395963,0.9988642803231874,0.9990639869878578,0.9996411591982369,0.9990649643090047,0.999251559247294,0.9995779317626353,0.9992119929512064,
4.166666666666666,0.9990312924145994,0.9995706050950877,0.9989711188362167,0.9997898745528045,0.9995409028517133,0.9988406660905431,0.9990895025502624,0.9996596986028231,0.9991060763274595,0.9992469471474842,0.999592590876277,0.9992257404918236,
4.145077720207254,0.9990487723486935,0.9994930399304273,0.9990384526240066,0.999787036651605,0.999536647291195,0.9988455556597734,0.9991351715946931,0.9996013070261358,0.9991377597775625,0.9992631699480424,0.9995651173117184,0.9992278788187618,
4.123711340206185,0.9990240664808835,0.9995127365149454,0.9990670776433342,0.9997921003667911,0.9995207472357502,0.9988488801447903,0.9991247550007175,0.9996210490862052,0.9991296035889627,0.9992638461377795,0.9995780531184623,0.9992555429717266,
4.102564102564102,0.9990608518228533,0.9995301079889705,0.9990847825568888,0.9997861140774393,0.9995161652637572,0.9988734051765554,0.9991259467711628,0.9996325676633787,0.999121369445405,0.9992687654964572,0.9995716903503585,0.9992487826441255,
4.081632653061225,0.9990794723989517,0.9995050455821818,0.9990461248437329,0.999789474166564,0.9995080116919555,0.9989451079485969,0.9991249947048167,0.9996245632648048,0.9991225095104147,0.9992358336416273,0.9995789832243406,0.9992243336555622,
4.060913705583756,0.9990691319013174,0.9995092580837983,0.9990709782025556,0.9997827243567425,0.9995251182047283,0.9989176691161852,0.9991691793376704,0.9996535295729798,0.9991281540175023,0.999253116415035,0.9995784732551154,0.9992506052271227,
4.040404040404041,0.9990930757668448,0.9995157542728045,0.9990454893628598,0.9997992841110475,0.9995094405649207,0.9989319867812254,0.9991196115301124,0.9996203631622091,0.999100487013671,0.9993038577833545,0.9995787373997657,0.9992108283745978,
4.0201005025125625,0.9991158911711656,0.9995518402480764,0.99906581989731,0.9997918605657371,0.9995320107184177,0.9989482005703312,0.9991710358845836,0.9996546382047017,0.999112128786143,0.9992883636470826,0.9995939913832594,0.9992726906706568,
4.0,0.9990867346873546,0.9995426190208597,0.9990522589683499,0.9997928037094939,0.9995291581568618,0.9989274840700805,0.9991473143515209,0.9996581553197873,0.9991236592760412,0.9993069828914655,0.9996024477184495,0.9992792498752783,
3.9800995024875623,0.999133047744556,0.9995667430111739,0.9990827199741241,0.9998015994715108,0.9995380935597794,0.9989577528205869,0.9991399247265028,0.9996628247545432,0.9991502254373521,0.9993044158430552,0.999612939172291,0.9992595371775612,
3.9603960396039604,0.9991241858384555,0.9995571410088968,0.9991006690252925,0.9998036601582951,0.9995601510864364,0.9989453436491955,0.9991492879794189,0.9996722157152875,0.999162672043762,0.9993229057830915,0.9996271856971642,0.9992573741684979,
3.9408866995073892,0.9991540721766368,0.9995671924254552,0.9991209662738132,0.9998155180829693,0.9995444055880769,0.9989979314713164,0.999217092848106,0.9996611923117326,0.9992144372578737,0.9993036922958989,0.9996257974497172,0.9992673217826812,
3.9215686274509802,0.9991483183787867,0.9995535933886974,0.9991792599652598,0.9997952706767104,0.9995438329151506,0.9989775142530817,0.9991844046422229,0.9996646925787855,0.9991548515738389,0.9993347425276764,0.9996247180781725,0.9992611758753057,
3.902439024390244,0.9991565836034414,0.9995722378212556,0.9991268348054126,0.9998002412483896,0.9995702532597561,0.9990017717879884,0.9991628514681234,0.9996719019815986,0.999233892075458,0.9993156520692362,0.999607245147208,0.9993106683184321,
3.8834951456310676,0.9991771145830016,0.9995819884377777,0.9991306586328076,0.9997994507587383,0.9995511384211198,0.9989849296604887,0.9991732308306696,0.9996807727566562,0.9991662567297855,0.9993136542921511,0.9996119832641581,0.9993247772880239,
3.864734299516908,0.9991499000367245,0.9995661965915079,0.9991160549129102,0.9998025453832086,0.999569923812817,0.9989907800876584,0.9992046685723568,0.9996918751448215,0.9992127934863071,0.9993274172336768,0.9995929886174234,0.9992679510357114,
3.8461538461538463,0.9991530557946241,0.9995732230001328,0.9991877205633038,0.9998070310950588,0.999557176374538,0.9990672505689222,0.9991983489242652,0.9996698718802715,0.999182677114017,0.9993680300061243,0.9995977205667977,0.9992826581982687,
3.827751196172249,0.9991624024670858,0.9995857016214255,0.9991863399602053,0.9998218043947222,0.9995820536342666,0.9989771980616967,0.9992136127098893,0.9996884243086712,0.9992401537966619,0.9993865191534426,0.9996202580041421,0.9993438681389597,
3.8095238095238098,0.9991775952020293,0.99957839208361,0.9991744561803317,0.9998225523645681,0.9995649826397994,0.9990282231227999,0.9992101955467038,0.9996695306740778,0.9992206244728833,0.9993621402213009,0.9996397511228158,0.9993240992500447,
3.7914691943127963,0.999199265498399,0.9995732329176891,0.9991706143163417,0.9998043673317256,0.9995764373380032,0.998990534141978,0.9992128740596118,0.9996463702120602,0.9992486161178756,0.9993871702643319,0.9996334488787144,0.9993329913469172,
3.7735849056603774,0.9991849390443466,0.9995761388944423,0.9991550840202837,0.9998139717806429,0.9995847965915677,0.9990204544206177,0.9992286915558277,0.9996775966014644,0.9992730271982923,0.999367716875559,0.999632555517787,0.999340659624599,
3.755868544600939,0.9991661675132024,0.9995448941360916,0.9991899507097723,0.9998267547993891,0.9995920280242391,0.9990462186102975,0.9992423288031027,0.9996840404310964,0.9992594029422747,0.9993836758836087,0.9996459903625621,0.9993390087127163,
3.7383177570093453,0.9992011141585073,0.9995808893664022,0.999261557570208,0.9998301868826321,0.9995652507102682,0.9991024456847031,0.9992687952620322,0.9996756929618855,0.9992429250262835,0.9993770029380277,0.9996508768969984,0.9993557928603354,
3.7209302325581395,0.9991932183494032,0.9996298218842659,0.9991732339608781,0.9998167543512074,0.99958856822439,0.9991029183686962,0.9992918850214779,0.9997085658016821,0.9992974815065188,0.9994017411739807,0.9996313266723911,0.9993620188596747,
3.7037037037037033,0.9991806342143349,0.9996299994830254,0.9992307663942311,0.9998260835558525,0.9995840733873926,0.9990625275065572,0.9992816749339027,0.9996962297783024,0.9992100323768437,0.9993893176558593,0.9996571712760738,0.9993803184945155,
3.686635944700461,0.9991937058329508,0.9995932679338702,0.9991834879432335,0.9998332391611119,0.999621144762129,0.9991277026782163,0.9992557877563741,0.9997034197956995,0.9992363899637973,0.9993925850320912,0.9996523014925381,0.9994045671943307,
3.669724770642202,0.9992072886222342,0.9995841952396766,0.9992235701039149,0.9998107557339456,0.9996173824104283,0.9991147519541682,0.9993060621710546,0.9996989270477958,0.9992822607755938,0.9994061766274711,0.999665777966561,0.9993965397574223,
3.65296803652968,0.9992364656317367,0.9996218445511402,0.9992050063585647,0.9998308897290844,0.9995970698915949,0.9991019992466221,0.999289699778118,0.9997124594838772,0.9993077516450917,0.9993873356656022,0.9996613847258118,0.9993683984426474,
3.6363636363636362,0.9992404637377243,0.9995997286224395,0.9992530949371546,0.9998293055092679,0.9996087239343159,0.9990968316882148,0.9992671947400396,0.9997129535975008,0.9992786053169391,0.99941576347068,0.9996563799316783,0.999375599440069,
3.619909502262444,0.9991912550829448,0.9996248751801515,0.9992292929422287,0.9998160567933498,0.9996247695440664,0.9990923248622781,0.9992878924068539,0.9997027508433476,0.9993293170331462,0.9994526859687229,0.9996617082102432,0.9994054665754746,
3.6036036036036037,0.999195124393559,0.9996088310720852,0.9991868852250532,0.9998336364619702,0.9996098017582271,0.999121591514958,0.9993596945334594,0.9997169428268946,0.9992915396347343,0.9993865471420208,0.9996866072889904,0.9994018797663928,
3.587443946188341,0.9992183747210492,0.9996399746075884,0.9992569593110564,0.9998408911369331,0.9996201854897149,0.9991580684105509,0.9993550113965777,0.9997277293545472,0.9992883767197923,0.999418070859054,0.9996628738056972,0.9993601772225886,
3.571428571428571,0.9992571965100493,0.999624739784818,0.9992416068595262,0.9998312849449336,0.9996102827977915,0.9991654970295393,0.9992787597094804,0.9997049182808878,0.9992945898782255,0.9994300449431548,0.9996855996219248,0.9993943926076956,
3.5555555555555554,0.9992538213556927,0.9996380300219855,0.999239898958667,0.9998226998410586,0.9996289272241101,0.9991352673656675,0.9993300837563921,0.9997176485738191,0.9993243484825085,0.9994433118601946,0.9996749896184378,0.9994064838130545,
3.5398230088495577,0.9992438183807636,0.9996280267476784,0.9992892807243923,0.9998304912255541,0.9996593731852021,0.9991321800898451,0.999320679738348,0.9997126186881138,0.9992979903259787,0.9994633319925224,0.9996728901166629,0.9994339751118739,
3.524229074889868,0.99925056107105,0.999621737799635,0.99927345788592,0.9998478029726888,0.9996485813966247,0.9991932624372695,0.9993261980691219,0.9997307497736846,0.9993080876877452,0.9994376464929114,0.9996989999839127,0.9994094148058863,
3.508771929824561,0.9992422247082435,0.9996465154937526,0.999295869385228,0.9998421824135543,0.9996195367679307,0.9991647694661805,0.9992747680061977,0.9997212572667571,0.9992783142440844,0.9994693084289125,0.9996825979719,0.9994475641781226,
3.4934497816593884,0.9993037429371109,0.9996364820469702,0.9992733014473296,0.9998554594218451,0.9996448723044006,0.9991896089218342,0.9993261930778391,0.999752539203543,0.9993168624181875,0.999443413275019,0.9996814524484942,0.9994394518438957,
3.4782608695652173,0.9993125510568033,0.9996479558407887,0.9993090829241424,0.9998391323040468,0.9996391670527769,0.9992055520641464,0.9993682723175568,0.9997380294549797,0.9993174116067819,0.9994711392802955,0.9996859846325816,0.999414171852751,
3.463203463203463,0.9993163378845571,0.9996612454493891,0.9993379668776871,0.9998460395480943,0.9996427659670527,0.999130987765293,0.9993405119646283,0.9997310656758441,0.9993284348397774,0.9994474287967038,0.9996896101836982,0.9994371000128552,
3.4482758620689653,0.9993529361876615,0.9996631563747577,0.9993197833468787,0.9998509016602155,0.9996733033183691,0.9991782836895986,0.9993929177421715,0.9997683437403642,0.9993624035937039,0.9994768899683825,0.9996980619703228,0.9994480185309313,
3.4334763948497855,0.9993159403128832,0.9996574463287652,0.9993403883720197,0.9998473235858191,0.9996695750157967,0.9992043489975603,0.9993969462874221,0.9997342788159133,0.9994074094640939,0.999494938349115,0.9997113963401099,0.9994236752455629,
3.418803418803419,0.9993300910928552,0.999630891122947,0.9993291047149989,0.9998541884038507,0.9996536907443444,0.9992588658430717,0.9993909922292162,0.9997360275149564,0.9994031100374211,0.9994979311322624,0.9997074929240491,0.999470098690286,
3.404255319148936,0.9993297037078609,0.9996815350297106,0.9993342263817645,0.9998522185376354,0.9996851314452604,0.999222450031056,0.9994025065520705,0.999757082052228,0.9993873918237808,0.9994889526257055,0.9997196938794197,0.9994568207516858,
3.389830508474576,0.9993306731616135,0.9996627735967466,0.9993282356340516,0.9998545965161808,0.9996819410558256,0.9992295574560891,0.9993966936178568,0.9997444172257797,0.9994020927805057,0.9995200792413111,0.999714665420596,0.9994783724655235,
3.375527426160337,0.999320402749337,0.9996873448298083,0.9993827849793017,0.9998612576432462,0.9996893932814741,0.9992157899640173,0.9993754753390514,0.9997514337022817,0.9994017403264753,0.9994970942268109,0.9997159925583761,0.9994795561017434,
3.361344537815126,0.9993048494657559,0.9996983594587228,0.999332231792464,0.9998578204445041,0.9996859415666992,0.9992558166712839,0.9993921748715423,0.9997519992387497,0.9994071128453357,0.9995004353618748,0.9997251850606568,0.9994797932067562,
3.3472803347280333,0.9993534000372496,0.9996876853453371,0.999349761261317,0.9998526391008676,0.9996535358572853,0.9992705888550618,0.9993965061142719,0.9997306060919009,0.9993942250280258,0.9995140049330643,0.9997283543773487,0.999491703472764,
3.3333333333333335,0.9993474545784322,0.9996967669231315,0.9993419421844957,0.9998649519580163,0.9996803275884854,0.9992250051972897,0.9994254198579012,0.9997537832282096,0.9993639914639454,0.999501095103932,0.9997086978464375,0.9994858570514363,
3.319502074688797,0.9993738279572378,0.9996787772904057,0.9993848082186704,0.9998661576580683,0.9996842248457171,0.9992876479143803,0.9994260429619543,0.9997587515872509,0.99942207023563,0.9995244981644424,0.999712142348796,0.9994755966992577,
3.3057851239669422,0.999394578547018,0.9996945777734022,0.9993684420050277,0.9998651231537008,0.9996857927210502,0.9992785150624627,0.9994047228485778,0.9997498004118656,0.9993984238959929,0.9995225866585872,0.9997299143588936,0.9995075138652779,
3.292181069958848,0.9993514524596773,0.999682627634379,0.9993824122506807,0.9998578921923139,0.9996867910262506,0.9992217242086872,0.9994151767138529,0.9997512034034314,0.9994215180073557,0.9995179000651665,0.9997346876235949,0.9995059990011084,
3.278688524590164,0.9993731162417793,0.9996886324200663,0.999367436602322,0.9998649634678118,0.9996954654777331,0.9992542162396285,0.9994051211662962,0.9997589037977204,0.9994403347016868,0.9995014494948802,0.9997259120650216,0.9994968434351679,
3.2653061224489797,0.999357922031031,0.9997000513318317,0.9993444221861073,0.9998604161599279,0.9996893613925822,0.99926460829307,0.9994240899097984,0.9997471185971097,0.999425542373026,0.999516839350599,0.9997390558683459,0.9994976696845406,
3.2520325203252036,0.9993754269935455,0.9996679824916299,0.9993499799720237,0.9998558259985983,0.9996727848663738,0.9992814661453648,0.9994090099165567,0.9997297731441654,0.9994253895476339,0.9995010411711215,0.9996942812596825,0.9995198064212386,
3.2388663967611335,0.9993615741191519,0.9996958451458373,0.9993507475080371,0.9998663226071347,0.9996998470810915,0.9992448725050279,0.999425289045078,0.9997698951821474,0.9994135052193018,0.9995054636827043,0.9997199515490298,0.9994692476288378,
3.225806451612903,0.9993622822891375,0.9997091439144945,0.9994049227597422,0.999859814280016,0.9996965842867029,0.9993038624353957,0.9994691772533226,0.9997726455852406,0.9994308004167001,0.9995268996967357,0.9997408366313094,0.99949123277033,
3.2128514056224895,0.9993997619625893,0.9997189687198089,0.9993944123122436,0.9998634289610732,0.9996925917262807,0.9992539993197874,0.9994069070089862,0.9997343351992382,0.9994114833313378,0.9995271132426207,0.9997333730819274,0.9995152412738998,
3.2,0.9994130211067501,0.9997183170196574,0.999399114607343,0.999858991955797,0.9997076831250494,0.9992863982573585,0.9994484721214822,0.9997680104685179,0.9994563931111529,0.9995363167991971,0.9997408738091261,0.9995249910105226,
3.187250996015936,0.99941603401214,0.9997085120759813,0.9993982846657651,0.999863968279499,0.9996971851651301,0.9992921184028363,0.999438348359631,0.9997754882853229,0.9994732373219617,0.9995558906562348,0.9997424489973868,0.9994903057774628,
3.1746031746031744,0.999394773281801,0.999673128269304,0.9994147145698365,0.9998722434771556,0.9997007409714047,0.9992925647285337,0.9994387110166422,0.9997647506279759,0.9994642827459821,0.9995397033395311,0.9997349664549818,0.999469010757636,
3.1620553359683794,0.9994202302812756,0.9997248883844706,0.9994210157680875,0.999864511764423,0.9997134387435164,0.9993089658698692,0.9994450249813261,0.9997890750182085,0.9994288917204354,0.999555117146503,0.9997319354501378,0.9995179912052725,
3.149606299212598,0.9994210785707546,0.999704368877153,0.9994148776123377,0.9998685228987712,0.9997051628316741,0.9992894946498384,0.9994551421233296,0.9997564882837925,0.9994719935315791,0.9995551706937948,0.9997546057696544,0.9995438568068044,
3.1372549019607843,0.9994227598248583,0.9997191173715105,0.9994213019039784,0.9998820251852992,0.9997216714393713,0.9993326927433954,0.9994633614425202,0.9997828743686966,0.9994888814352662,0.9995388210575525,0.9997480145465486,0.999538144234213,
3.125,0.9994533624883276,0.9997192491860393,0.9994316264426379,0.9998708442664739,0.9997006178537327,0.9993313827415218,0.9994185224758275,0.9997620190235629,0.9994595513154032,0.9995445219101182,0.9997338212576289,0.9995258441245564,
