,Airplane.bmp,BARBARA.bmp,BOAT.bmp,BRIDGE.bmp,Building.bmp,Cameraman.bmp,girl.bmp,LAX.bmp,LENNA.bmp,Lighthouse.bmp,Text.bmp,WOMAN.bmp,
100.0,0.8201803280236525,0.8880960144553768,0.8237659354182723,0.9427933870260564,0.8958805504657125,0.7953850254242426,0.8095451753947306,0.9061036216506508,0.8209636937317875,0.8508561667065851,0.9064581711579973,0.8320714985628201,
88.88888888888889,0.8521817626428265,0.9125402604149587,0.854539436552251,0.9566138102418309,0.9169181569988556,0.8304444423117908,0.847921255884486,0.9285379898617678,0.8548685744712469,0.8799380412306071,0.9267574319459503,0.8663471326602357,
80.0,0.8703397321773432,0.9245253679669376,0.8705704197059627,0.9627659701713545,0.9279028654642324,0.8500787619108277,0.8670981438909259,0.938395213691668,0.872117528934305,0.8945780897979038,0.9356663003941582,0.8826309661254822,
72.72727272727273,0.8861212635803152,0.9354741887670407,0.886480693091509,0.9692207429266401,0.9379277783620782,0.869738211550646,0.8859116376272026,0.9477440643069428,0.8894796221028921,0.9082531768143511,0.9453661903871537,0.8997005360578201,
66.66666666666666,0.8973376289390004,0.9430490581289382,0.8979991038999228,0.9725797803737533,0.9444310673568854,0.8818566203237942,0.8979322539136229,0.9541763052265051,0.9009230236255198,0.9179620491444124,0.9511624128033468,0.9108197152373593,
61.53846153846154,0.9061122149955078,0.9475711186559747,0.9050364392954489,0.9747948387019494,0.9488512020750113,0.8908466535521751,0.9061316593155665,0.9577275561330916,0.9089824203702505,0.9245721065758619,0.9550532471382653,0.9181753998324846,
57.14285714285714,0.9136602102678055,0.9520889223040443,0.9126532352364851,0.9774129478849859,0.9523937023639224,0.899083894755065,0.9142052123107866,0.9616282209680656,0.9164016542927426,0.9292102666309298,0.9581883141367844,0.9248255178992952,
53.333333333333336,0.9203436437419444,0.9562398818517202,0.919966639612189,0.979347381105653,0.956971642984404,0.9067059114927687,0.9211329728647326,0.9650917914494869,0.9230049083674916,0.9363438018939214,0.9623371676866087,0.9306501107347579,
50.0,0.9251636689356402,0.9604897316281962,0.9263249689311708,0.9809953613598383,0.9607795533784244,0.9146460438935804,0.9281539442663269,0.9681033925860661,0.9291838268586632,0.9404124993104043,0.9654848307756446,0.9357232201236853,
47.05882352941176,0.9321474837649519,0.963060928814773,0.9312699513655817,0.9823673759726792,0.9635897335134608,0.9199219249713361,0.9334318361101598,0.9701731485992755,0.9343143961300304,0.9457677214244741,0.9675418247268068,0.9410686784840783,
44.44444444444444,0.9359458551626016,0.9658480204936662,0.9361962182409074,0.9841089015057786,0.9658866677352425,0.9256644516086844,0.9375603548512034,0.9726857145515259,0.9384032391254792,0.9491645610219259,0.9703464932832211,0.945744119855407,
42.10526315789473,0.9405585127975782,0.968279415026675,0.9405797391678982,0.9853554353939928,0.969135917156046,0.9319637986478405,0.9424821973553195,0.9746448118504066,0.9434191188581479,0.9533547227770173,0.9726447297800765,0.9505879402841309,
40.0,0.9454541505769828,0.9715172871721537,0.9458790541446596,0.9865848996423884,0.9714376094503882,0.9362279641842247,0.9472328787214143,0.9767034692636579,0.9477191652727447,0.9570076178153998,0.9745501444703131,0.95463404271395,
38.095238095238095,0.9495396369846097,0.9734921466743152,0.9487749477259033,0.9877260334978536,0.9736016433920323,0.94144727029949,0.951158711684316,0.978788080270803,0.9525046691353725,0.9605455493384508,0.976973663766044,0.9575852986490095,
36.36363636363637,0.9537722115481332,0.9753282277160602,0.9532696164378958,0.9887630595645902,0.9756608565882445,0.9459057428950394,0.9556595860817917,0.9805049092401121,0.9552967384194051,0.9633526265467529,0.9788751756586462,0.9609254502483877,
34.78260869565217,0.9556531384273903,0.9764370369271491,0.9558608474671021,0.9893804848279663,0.9768862491773435,0.9477823294869048,0.9571915719353631,0.9814498238091641,0.9579487186736655,0.965098294973707,0.9797833956719635,0.9632753635420603,
33.33333333333333,0.9575759992272451,0.9778473116103533,0.9573120113043687,0.9897790966542102,0.9778335780818489,0.9505320601964333,0.9591996009572661,0.9825508301639908,0.959449570241593,0.9663935139166232,0.9806642680175949,0.9644386712438214,
32.0,0.9591498175290726,0.9782152723542955,0.959249882029551,0.9901773253851209,0.9787045118271392,0.9524528639695333,0.9611369146928755,0.9830498126967996,0.9617393983627949,0.9677820823654584,0.981457025534143,0.9658676714651915,
30.76923076923077,0.960377674824749,0.9793023951436506,0.9608427200860271,0.9905723467696546,0.9792787513303792,0.9536526392176237,0.9624094523107509,0.983706056743314,0.9625471441521654,0.9687761725535102,0.9820593612550236,0.9669890299102627,
29.629629629629626,0.9620009276594869,0.98029289939749,0.9614532235535336,0.9908958554154845,0.9802696129836075,0.9554898731773899,0.9638996330293089,0.9844185680963949,0.9641656228147729,0.9696686942691358,0.9826801664668802,0.968228267876013,
28.57142857142857,0.9631315294185094,0.9806618704220524,0.9628662839742546,0.9913240093161017,0.9810499029742815,0.9569058501795192,0.9650512783869439,0.9848656720319685,0.9651206416026404,0.9714543441955942,0.9834008088346452,0.9692038127529257,
27.586206896551722,0.9648783372792498,0.9818763712947758,0.9641683189505497,0.9915573627226737,0.9814925737289476,0.9586663643072819,0.9662532866610601,0.9855043978416947,0.9662214600816653,0.9724660883203333,0.9838333355581812,0.9705823813663362,
26.666666666666668,0.9659940407460315,0.9822469393411605,0.965892619961047,0.9918838773206243,0.9822124448335748,0.9602875796431478,0.9675088420275387,0.9858906048007334,0.9676219645356762,0.9732277279883101,0.9843593585490585,0.9715673571945957,
25.806451612903224,0.967094170833818,0.9827319535119179,0.9669939532062184,0.992111391970662,0.9827346892083795,0.960616025388022,0.968328078307608,0.9863195775216718,0.9688808045345677,0.9737964092951968,0.9850185989638062,0.972530636849043,
25.0,0.9683546262172691,0.9847831294166066,0.9672166995964028,0.9924028252150201,0.9842992013277644,0.9629519234469709,0.9703242766704774,0.9870232828426542,0.9704675766584921,0.9754183403103097,0.9866400925932491,0.9735330556208917,
24.242424242424242,0.9693210290138067,0.9836271727637405,0.968766929920751,0.9926521083054411,0.9838239161998108,0.9634241007654698,0.97056681157756,0.9872903310901886,0.9707060874565397,0.9757627330390369,0.9859106331103635,0.9740246650746541,
23.52941176470588,0.9698934881536838,0.9844884420184468,0.9697093051414643,0.992864759543864,0.9843812136036635,0.9645069141942729,0.9712885322751459,0.987802782263819,0.9717040966627769,0.976480069485127,0.9861875290870017,0.9748032599382702,
22.857142857142858,0.9706305986535204,0.984702563099618,0.9701899529359435,0.9931088149523786,0.9848724503298326,0.9657424467860206,0.9715893971566542,0.988174027492439,0.9723792090212552,0.9768488750147831,0.9864540437695392,0.975393891362493,
22.22222222222222,0.9717289210905348,0.9852235551509863,0.9713296495895304,0.9932151825096045,0.9853031803170282,0.9667385732084566,0.9730704187868665,0.9882528339935682,0.9733698105927071,0.9776362716169562,0.9872752044465231,0.9763893905013272,
21.62162162162162,0.9725389611793009,0.9856359443703837,0.9726144938080533,0.9936331118745685,0.9858752173084806,0.9680063620618845,0.9738385907646443,0.9886917198490595,0.9742987609217657,0.9781337461182531,0.9874465188021772,0.9771447886307933,
21.052631578947366,0.972839221273669,0.9858288809107797,0.972780944736377,0.9936133007615109,0.9856512552292276,0.9683277844753579,0.9741684221687263,0.989131726819085,0.9741092669654399,0.9786103303569625,0.9875575213690275,0.9776391815735466,
20.51282051282051,0.9735689221321621,0.9864740252485932,0.9738450188006945,0.9938541983768477,0.9865225540828849,0.968786770958852,0.9751224066437708,0.9893219386805381,0.9748928251510268,0.9795602562355363,0.9880082612035814,0.9780938978876462,
20.0,0.9743453051849517,0.9869461738199354,0.9739298982490022,0.9940519703828936,0.9864687217214573,0.9696458178751443,0.9756469250106234,0.9895007452383366,0.9755816173790454,0.9795329471582157,0.9881735622187928,0.978588828021986,
19.51219512195122,0.9746408683201815,0.9870177328215719,0.9749336254291618,0.9940951901318468,0.9868199381909486,0.9702691795778565,0.9760555255746082,0.989847232652347,0.9763369287855849,0.9802323628674695,0.988473840874739,0.9790531916066801,
19.047619047619047,0.9761041577496723,0.9874511648834157,0.9758620939969707,0.9943270609382824,0.9874327554865445,0.9716837885312501,0.9769913077831688,0.9902400831879481,0.9770710724487814,0.981003250925637,0.9890872579729174,0.9796368039702065,
18.6046511627907,0.9766872002786582,0.987958134368583,0.9767379400466202,0.9943539368919118,0.9881475093907373,0.9724641157194163,0.9777933950970036,0.9903017678667477,0.9781778434651304,0.9819354462751496,0.9893325148324099,0.9806235270232133,
18.181818181818183,0.9767721339255582,0.9881725270001955,0.9769974753981638,0.9945101513664999,0.9879456941745273,0.9727693856534139,0.9775852921889476,0.9906867290953992,0.97791407278522,0.9818499189270972,0.9894462957428349,0.9809182862673568,
17.77777777777778,0.9771101295811244,0.9881459676612331,0.9770949353070654,0.9947057504827693,0.9880886969021133,0.973377690611421,0.9784342051685457,0.9907934590749892,0.9785027013271559,0.9820900649074527,0.989566860566596,0.9809093826456607,
17.391304347826086,0.9777523446127254,0.988545623186151,0.9775176581683825,0.9948416247862408,0.9883539734342593,0.9740071116286196,0.9790762087674568,0.9910105586669015,0.9791780487448531,0.9826968116299747,0.9898974880986924,0.9816876508175777,
17.02127659574468,0.9782617603514641,0.9888553070784237,0.9781970623962972,0.9948732377830964,0.9889169442485414,0.9743735374474359,0.979412572948074,0.9912549972012489,0.9792696275013331,0.9829356099843465,0.9902083295819031,0.9820546222279896,
16.666666666666664,0.9784076150577102,0.9893318357372829,0.9785696545526797,0.9951567220534182,0.9890412018243029,0.9752197600576976,0.979482807639695,0.9915237245466354,0.9799110865214319,0.9831890273916504,0.9905089306384941,0.9823026893147542,
16.3265306122449,0.9793443281348904,0.9891626171252875,0.9789844629014466,0.9951924847332274,0.9888408660083,0.9754724355052639,0.9804017748779615,0.9917110516277956,0.9800853190021637,0.9836230718056286,0.9903792388173303,0.9827699012894346,
16.0,0.9799727410427846,0.9895825855918688,0.9797085310254305,0.9954738625795281,0.9895108326972508,0.9764672785462296,0.9810076102674495,0.9917874352867565,0.9811793332595439,0.9843114920442664,0.990963722190068,0.9832913722222305,
15.686274509803921,0.9808462315405928,0.9900553078503102,0.9811938066314857,0.9953003348134001,0.9901219945229006,0.9779625464593131,0.9814656296613838,0.9920501671423871,0.98186899194373,0.9855687554458749,0.991359708533925,0.9840303198027597,
15.384615384615385,0.980889461343091,0.9899503249916477,0.9805583861175841,0.9955035352904575,0.9900785292907541,0.9774356656571156,0.9816466246471072,0.9921119372632538,0.9817430850607808,0.9849146511062059,0.9916152735096353,0.9842904055950061,
15.09433962264151,0.9809920125821298,0.9901405052305292,0.9811235015189483,0.995530866375484,0.990009410547629,0.977665712827794,0.9820928051550422,0.9922770955135739,0.9819772439260488,0.9852346570652434,0.9913342317596262,0.9842072772637848,
14.814814814814813,0.9811915749498198,0.9905863052385229,0.9812078747548347,0.9956938473516529,0.9902236504198147,0.9783836457818832,0.9825207938576537,0.9924077531693095,0.9823180267904952,0.9855172416207248,0.9915789539522415,0.9844610401737217,
14.545454545454545,0.9814921590812693,0.9906049047364021,0.9813963724278192,0.995788293814777,0.990432448673864,0.9787198594826452,0.9826954695791738,0.9926056694531151,0.9826554327494484,0.9856027256077814,0.9916252422597225,0.9846155150747959,
14.285714285714285,0.9821310414596089,0.9906845432576182,0.9817372102545661,0.9958028204040755,0.9905725387898355,0.978733614294066,0.9827114321770873,0.9927088540069964,0.9831343601194651,0.9858866855335063,0.991832471719582,0.9848996346353627,
14.035087719298245,0.9824211705235844,0.991166302137919,0.9826018490655359,0.9959808974129596,0.9908358322773801,0.9796290266626447,0.9833118460036128,0.9929307363776758,0.9836910305127597,0.9860635160433704,0.9919548389262294,0.985291073087448,
13.793103448275861,0.9827713798045267,0.9908294163062263,0.9825653664670557,0.9959092724049474,0.9909715544269447,0.9795286412887194,0.9837025264083761,0.9930263493104737,0.983663410615333,0.9865559661398248,0.9921619820673424,0.9853858621049001,
13.559322033898304,0.9828313761546492,0.9911094523335889,0.9827810830285707,0.9960245465211124,0.9909321404481196,0.9799602997776079,0.9839796526543926,0.9931777990704872,0.9839251174535908,0.9864394524993368,0.9922019357662953,0.9857562266041913,
13.333333333333334,0.9834760265688391,0.9914948564888727,0.9829419458619597,0.9962484401515905,0.9913754805056901,0.9800659164782375,0.9842893441704724,0.9933531325568286,0.9840198861602815,0.9868812186567844,0.992575486873263,0.9863326422153115,
13.114754098360656,0.983915713680699,0.9916326266187482,0.9834628002019715,0.9962009513772537,0.9914247277205003,0.9803369533817582,0.9843902452393534,0.9933838118004193,0.9845061019127811,0.9871586345754416,0.992506144823022,0.9864701907690214,
12.903225806451612,0.9840116571741406,0.9918606135386524,0.9838481276499734,0.9963071719746526,0.9918456996778262,0.9811383555002465,0.9845384252995752,0.99359205135593,0.9851109740562204,0.9875367908598454,0.9928776935661314,0.9866880100223346,
12.698412698412698,0.9845938902068369,0.9920030866159927,0.9842705226811226,0.9963964730315994,0.9917877896849484,0.9817378946923001,0.98530247928343,0.9937614949885394,0.9854382144317229,0.9877761322240798,0.9929825467491392,0.9873517778532558,
12.5,0.9845397809109788,0.9935402711791118,0.9833067670704111,0.9965910408560936,0.9931481913948969,0.9824220358465118,0.9857843313519052,0.9952427070552001,0.9859464981023973,0.9879113823451456,0.9936281595172607,0.9878483725845483,
12.307692307692308,0.9851420260825345,0.9925176118118595,0.9848285361691625,0.9966216596012663,0.9923860153618176,0.9824980551197905,0.9859494578155583,0.9942577701787113,0.9862288888146643,0.9882553405211095,0.9930834137529959,0.9874848353227332,
12.121212121212121,0.9849121219458307,0.9923040292315819,0.9850076029948949,0.9965319488454577,0.9922680800453799,0.9821076947537922,0.9855049325625924,0.9940635875574779,0.9862444102167708,0.988314344109783,0.9931958143147783,0.9880724188339561,
11.940298507462686,0.9852002528488478,0.9924370323562387,0.9849593273398115,0.9965375691073757,0.9923811045551907,0.9825047522221841,0.9860027287785493,0.9940633146421725,0.9859841305561807,0.9882809160517461,0.9933767693245973,0.9878975243257286,
11.76470588235294,0.9854736511808103,0.9925179425211955,0.9853563882252102,0.9966484599442081,0.992347741734238,0.9831950693732531,0.98638694076279,0.9944100428793569,0.986322380454534,0.9886608759673697,0.9934143499389675,0.9882370291327994,
11.594202898550725,0.985354036834476,0.9926795191462695,0.985769911930302,0.9967959254626981,0.9924200121009372,0.983340370374536,0.9863212036518786,0.9942856239937491,0.9865920789783955,0.988538799347576,0.9935969532696278,0.9883860093394874,
11.428571428571429,0.9857536822466222,0.992918631228598,0.9855781848197075,0.9967970713645565,0.9926832082802693,0.9834518157503009,0.986759490701531,0.9944365193123093,0.9868632220236598,0.9889798739873042,0.9936513974069076,0.9885360407876568,
11.267605633802818,0.9859152489733964,0.9930244639943818,0.9863839813347061,0.9967896029985794,0.993046250470938,0.9838800985681269,0.9871769169995376,0.9944098874686838,0.9868454978927094,0.9892299586533404,0.9938251472218873,0.9886559353014315,
11.11111111111111,0.9864925873711887,0.9932436670570967,0.9859986376649524,0.9969305834961611,0.9929934653104235,0.9844881064507939,0.9873106517476666,0.9946269723868553,0.9870791605083641,0.9894737202520483,0.9940252836782458,0.9887566310709234,
10.95890410958904,0.9872185188302931,0.9934867998986745,0.9866541953104313,0.9970271425468249,0.9930477942428952,0.9846153798375169,0.9877276068268168,0.9948475091997044,0.9875718202736133,0.9895862115213081,0.9941422653257069,0.9887981643587843,
10.81081081081081,0.9869288915600165,0.993506660792602,0.9870372770499157,0.996952473922381,0.9933985955206238,0.9849477698277278,0.9877489012828083,0.9946588213876004,0.9879574254579095,0.989653444993379,0.994140781709196,0.9891808248336398,
10.666666666666668,0.9871098940782173,0.9933761307865612,0.9870854812772691,0.9970558558589914,0.993324340317538,0.9847908677432202,0.9878365416986415,0.9949260668163827,0.9879922160101052,0.9900111500283987,0.9941943246018632,0.9894425450500182,
10.526315789473683,0.9876849716441078,0.9935294971110509,0.9873485375984453,0.9969382906821335,0.9933445032893536,0.9852596825029647,0.9882075059072423,0.9949792823155416,0.988276299705117,0.9897475676388574,0.9940489001093985,0.98986027546459,
10.38961038961039,0.9878531236748104,0.9934712432362012,0.9874905840324418,0.997047432771249,0.9935651999945743,0.9853784648244249,0.9884577363780163,0.9950283982602934,0.9882329213573023,0.9902742518102723,0.9944257811855147,0.9900849414923397,
10.256410256410255,0.9876443979774832,0.9935943211892605,0.9876066558448413,0.9971768212091712,0.9937859084792023,0.9855598923457237,0.9885260899496813,0.9950230660884555,0.9886419158846639,0.9904192866542862,0.9944152536837275,0.9901846477264385,
10.126582278481013,0.9878754224162948,0.993837163638171,0.9876412041449366,0.9972471800138218,0.9936069270427231,0.9861180142472834,0.9887865380758496,0.9953362541980524,0.9886471764119212,0.9904630531324735,0.9946923475117929,0.9899610631721779,
10.0,0.9878140519199597,0.9939311002677286,0.9880078923479865,0.9972277364524276,0.9939501181304602,0.9860874251296381,0.9888698906096437,0.995282480264172,0.9890974135098209,0.9904837160639087,0.994709013023202,0.9903478800601864,
9.876543209876543,0.9880801410022514,0.9938822464188751,0.988175479471134,0.9972960659973589,0.9936097489663321,0.9863955756919146,0.9891272707388128,0.9953139896704766,0.9892444374722569,0.9908564414904456,0.994773068276099,0.9902401694217777,
9.75609756097561,0.988199786137203,0.9939635554612622,0.9881752565481209,0.9973125238597885,0.9940217336442021,0.9864463099462745,0.989237323130143,0.995312156315179,0.9888735805303187,0.9908653126756533,0.9946664127405256,0.9903874765789253,
9.63855421686747,0.9885330053015011,0.9941770650091258,0.9887871083988184,0.9974596956498363,0.9941719026911829,0.9867253988610845,0.9893903798713197,0.9954718000602863,0.9895850149914812,0.9910886031476218,0.9948198978562357,0.9906646405241248,
9.523809523809524,0.9891900798874047,0.9942321835224727,0.9886105890435831,0.9974616751871811,0.9941598726504565,0.9868358741293358,0.9893173622446977,0.9954718888161334,0.9894666603002616,0.9912610792190745,0.9947625947535019,0.9904038642312682,
9.411764705882353,0.9886506519416103,0.9950493864452276,0.9892489532283235,0.9975246309497574,0.9943928548529689,0.9873269125291411,0.9891156365737875,0.9954596393161478,0.989587279477709,0.9913809771896159,0.9949394104678729,0.9911100679330843,
9.30232558139535,0.9897572128193541,0.9943597595044701,0.9890260131576715,0.9974366978102006,0.9945287352790164,0.9875003544400711,0.9901358693545345,0.9958301997509923,0.990352660510388,0.9917047531917023,0.9952401757124896,0.9910781426718396,
9.195402298850574,0.9894700006530077,0.9944795260958328,0.9891330648822582,0.9974365874705323,0.9943909267912544,0.987522984910042,0.9899726789341766,0.9956631774597924,0.9900269049286156,0.9914728861915111,0.9949315876468389,0.9912600463457342,
9.090909090909092,0.9892320567803635,0.9943744847022573,0.9894425958169182,0.9974993013127329,0.9944305676705065,0.9872375129417574,0.989968597693311,0.9957962059571316,0.9900834390008634,0.9917699450420846,0.9951963027669778,0.9912675168353678,
8.98876404494382,0.9890858986095629,0.9946701880625018,0.9891798440958615,0.9975465469584481,0.9946052834949752,0.9873144459212368,0.9900960084510937,0.9955550955071678,0.9899507669733489,0.99164418296157,0.9953585450298834,0.9914901623633778,
8.88888888888889,0.9891859350766739,0.9944801281839646,0.9893546258395675,0.9975892112983314,0.9944808371715285,0.9876590502786564,0.9902103558008476,0.9958309774489169,0.9899625413207135,0.9916406032727229,0.9952090150433466,0.9913383777154678,
8.791208791208792,0.9894385997276646,0.9949574746029702,0.9898555192527593,0.997718369554943,0.9945545312287859,0.9880588612345177,0.9901474261920593,0.9958558362091284,0.9905310910916565,0.9919121258665438,0.9953096117184204,0.9913502658990966,
8.695652173913043,0.9897306429632908,0.994756755159991,0.9897085171234029,0.9977007550880723,0.9946372784922004,0.987910963599856,0.9902230321231611,0.9959106031242811,0.9904508929569256,0.9918969516283279,0.9953125584629671,0.9915979202282768,
8.60215053763441,0.9898548474369169,0.9949490972892404,0.9900196866853963,0.997710888313349,0.9948581280576283,0.988161476465653,0.9906408920439267,0.9960995314438285,0.9908325673608834,0.9920831390115237,0.9955194054662666,0.9919049714144432,
8.51063829787234,0.9901250114692485,0.9950153502378514,0.9900298808051652,0.9977928409163468,0.9948300528317482,0.9881231577940244,0.9906715796557326,0.996138187937359,0.9909014428052451,0.9922561505721721,0.995487363046368,0.9916518442268626,
8.421052631578947,0.990486459537876,0.9948811609084155,0.9901215754115644,0.9977244282547947,0.9949046460472315,0.9883339765947209,0.990690751926662,0.9960108843526004,0.9909955876891834,0.9923874999928404,0.9955628420968612,0.9919050580119105,
8.333333333333332,0.9901831635794821,0.9957365906194717,0.9901013075325928,0.9978313730569478,0.995205711998835,0.988511817769446,0.9911663462863833,0.996165267444224,0.9910664439327115,0.9925750401201978,0.9959060439605026,0.9919669850123762,
8.24742268041237,0.9904679522771928,0.9952345443536207,0.9904528134368141,0.9978789997597005,0.9950597010673897,0.9887678269331528,0.9911446451060184,0.9963739666510454,0.9909856656759779,0.9924044764035842,0.995615667555068,0.9920037575740102,
8.16326530612245,0.9906783704732298,0.9951912807467582,0.9906875507276265,0.9978726456346293,0.9950308327032282,0.9890559437591003,0.9910231439259448,0.9962678842017142,0.9913163549275251,0.9926774087912894,0.9957776793378054,0.9922801992894021,
8.080808080808081,0.9907081383893266,0.995068606756369,0.9905062599052691,0.9979120066748292,0.9950902799873057,0.9887948194222602,0.9914175559223104,0.9963505081550849,0.9913296858571958,0.9927527417860257,0.9957875000988331,0.9922265970821752,
8.0,0.9908061160977105,0.9952517098475874,0.9906749654919385,0.9979181342812594,0.9952319176760978,0.989254791375214,0.991369974105668,0.9963001653430742,0.9912984169332228,0.9929656603701512,0.9959211134239623,0.9925522607026999,
7.920792079207921,0.9912336783306852,0.9954396829808626,0.9908540003850373,0.9979433614321649,0.9953361645995833,0.9893414766056954,0.9913560539196681,0.9964469100713443,0.9915907385996975,0.9931013332316072,0.9959306194391832,0.9925796261401083,
7.8431372549019605,0.9912318817785858,0.995358915274468,0.9912051520604477,0.9978799897579987,0.995515758044655,0.9894849682428956,0.9916506495572964,0.9964906233597076,0.9914752672874252,0.993263113863399,0.9960012799303493,0.9927432565891445,
7.766990291262135,0.9909827986102384,0.9953889108867203,0.9906428503581086,0.9978896630780347,0.9955942765159045,0.9897117384638521,0.9917138802882158,0.9965689620401414,0.9917343475732783,0.9929159708931785,0.9959717083458296,0.9928774560388819,
7.6923076923076925,0.9911123023933988,0.9955479758116171,0.9908231583586462,0.9980911385633395,0.9954947785896904,0.9893993224256373,0.9914235738233571,0.9964244905664443,0.9915546574485654,0.9930547188962763,0.9961283948229829,0.9924485760663859,
7.6190476190476195,0.9915880753260141,0.995423555412723,0.9908838495306336,0.9979949787555457,0.9954997212131155,0.9896692233798625,0.9917747452565358,0.9965382649429728,0.9916679279674521,0.9931180800244741,0.9959101882250742,0.9927697568740051,
7.547169811320755,0.9914382102262774,0.9958540448601937,0.9911653233216886,0.9980808238436254,0.9954607963685624,0.989559909741173,0.9918237169481066,0.9966544698586183,0.9916710565741662,0.9929787996432128,0.996145045101694,0.9928249345840401,
7.476635514018691,0.9914865723043946,0.9956279840520923,0.9915122991014088,0.9980563089860981,0.995422455794662,0.9895796732856996,0.991721530216067,0.9966143873245357,0.9920863112778329,0.9932582545328308,0.9961859061315036,0.9929104309557316,
7.4074074074074066,0.9914254156759542,0.9958455388515927,0.9916508473837364,0.9980479833312054,0.995537159168299,0.9904164196446472,0.9920825159308098,0.9966792271036049,0.9919566553804987,0.993445793997741,0.9961667866384155,0.9931746140703259,
7.339449541284404,0.9918798284180127,0.9957779160381574,0.991591302457645,0.9980178012254147,0.9956152444628111,0.9898910421618985,0.9919273869385165,0.9966825435234153,0.9920403004504152,0.9933680869342643,0.9961828975167262,0.9933186708641526,
7.2727272727272725,0.9917707198799497,0.9959695361906012,0.9920819674157646,0.9982140861762288,0.9956587939891058,0.9901437686292268,0.9923100402397822,0.9967929043244986,0.9920472051738757,0.9935190161029539,0.9961503560703793,0.993479678385824,
7.207207207207207,0.9919635202394935,0.995873117212672,0.9920309784391084,0.9980895842224805,0.9958684626804156,0.9905653339917905,0.9922342098523546,0.9967517833929361,0.9923667130304947,0.9935071795561008,0.9962473213015555,0.9931564977425379,
7.142857142857142,0.9922682607609313,0.9958793117609965,0.9917479265277732,0.9982008053466723,0.9957864978942186,0.990605406908614,0.9921750229585807,0.9968280689815708,0.9922771617089274,0.9936046043507429,0.9963295879565995,0.9934359221982277,
7.079646017699115,0.9923231090536739,0.9960305266227271,0.9921601041118047,0.9981750438596225,0.9958907052339913,0.9907182552829055,0.9926030061806489,0.9968107152118475,0.9926029861702538,0.9940349179492434,0.9965677883650178,0.993477528152743,
7.017543859649122,0.9921977045124001,0.9959997450937551,0.9922049265775523,0.9982398602372415,0.9959184978634236,0.9909290968612565,0.992512882815471,0.9969562463430314,0.9925386486165658,0.9939449889475221,0.9965513256823,0.993590505781729,
6.956521739130435,0.9922261009928883,0.9961566457727938,0.9923226224648403,0.9982646942248454,0.9959466934808929,0.9907619731919215,0.9928296624153463,0.9968938017122524,0.9926974095329265,0.9940368275517436,0.9964922892142449,0.9938286879191673,
6.896551724137931,0.992256621935191,0.9961213624991968,0.9923105065654609,0.9982826205472338,0.9961352405293828,0.9909692321022203,0.9928652973742924,0.9969165658190194,0.9928200386177756,0.9942068095149937,0.9966442201954024,0.9939052412956649,
6.837606837606838,0.9925149133718669,0.9959079169622254,0.9924138335849603,0.9982204842032435,0.9962856773059299,0.9913958492641314,0.9929958887014012,0.9970864297533555,0.9930236637362125,0.9940847810788571,0.996706346138527,0.9939831803049505,
6.779661016949152,0.9924472765304932,0.9961597243421604,0.9924025294309526,0.9982988237842421,0.9960283401112537,0.9913631315329233,0.9931362738998741,0.9971021592601956,0.9932184735327081,0.9941045777001182,0.9966301029759861,0.993993229331795,
6.722689075630252,0.9927635569701154,0.9961966141441899,0.992593617849289,0.9982655867298429,0.9961007385507892,0.9912350025720653,0.9930161680448906,0.9970875293629726,0.993358275416619,0.9942868840267353,0.9965859054346938,0.993967907092042,
6.666666666666667,0.9929246978626376,0.9962880224232928,0.9927590857238365,0.9983484881848494,0.9961667653737047,0.9915549080198927,0.9931319250517331,0.9972059894316198,0.9931760564491314,0.9943085511955773,0.9967417115827001,0.9939701575492622,
6.6115702479338845,0.9928443128167608,0.9963222394058661,0.9927737762296853,0.9983024672584853,0.9962312730373236,0.9913582172035218,0.992868380274894,0.9971542391016113,0.9931169382743357,0.9945019330340017,0.9967738849021845,0.9942545226793076,
6.557377049180328,0.9928911779910774,0.9962541981543003,0.9928236806822252,0.9983296433166406,0.9961778020670908,0.9913907689789835,0.9930703885649905,0.9971206195739912,0.993315381799727,0.9943417961088231,0.9966383039505082,0.9942378270016505,
6.504065040650407,0.9929256398945937,0.9965896278585625,0.9930971217813457,0.9983316174925196,0.9963442584064389,0.9917877256000148,0.9931601596843176,0.9970165391063369,0.993275905057671,0.9944227716008847,0.9968786058774275,0.9942394831658331,
6.451612903225806,0.9930630082463832,0.9965225204398943,0.9929500514731645,0.9984404635589964,0.9965702785901731,0.9915651800656452,0.99347405365636,0.9973360819449811,0.9933910240459202,0.9945700568336978,0.9969903227876816,0.9941365210401509,
6.4,0.9932686344210292,0.9965017141297089,0.993063072164104,0.9985553570543853,0.9965391343638276,0.9917315877344046,0.9934907799261457,0.9972551206369362,0.9936441819071781,0.9945793456143793,0.9968227299222135,0.9943298001967789,
6.349206349206349,0.9934224367915071,0.9964735378357749,0.99314749872572,0.9983386140202775,0.9964712734045365,0.9920516164148633,0.9936227119220788,0.9971542106430998,0.9936956433425791,0.9947729788381663,0.9970241135771898,0.9943686512687113,
6.299212598425196,0.9936693465718391,0.9966722421157954,0.9931225278027567,0.998456428458155,0.9964307442838741,0.9920877500732487,0.9936230307004489,0.99731198270133,0.9935484425443801,0.9946580504565523,0.9970380093281213,0.9946344199475937,
6.25,0.9925925311393929,0.9965218766430396,0.9920724585441874,0.9986262934178848,0.9969936101648195,0.9931701553769345,0.9948605276624837,0.9979640790393386,0.9933417605231376,0.9949081580140486,0.9971035597081088,0.9948073018304137,
6.2015503875969,0.9934501547220778,0.9968236430980598,0.9937177033012667,0.9985551837170266,0.9966626844641487,0.9923694626093702,0.9935268247594872,0.9972592328362779,0.9938169598253549,0.9948060043891314,0.99714324868254,0.9948393231116766,
6.153846153846154,0.9932963688413317,0.996742358694715,0.9935337288120435,0.9986081231856717,0.9966352218914432,0.9922893573082847,0.9939036811957125,0.9975337752969069,0.9938234490431243,0.9947937446111568,0.9970911021474989,0.9943742097326411,
6.106870229007633,0.9937072783088488,0.9966668582665912,0.9932728431732497,0.9985699036422516,0.9966554553231196,0.9925793247464763,0.9938379067547367,0.9974251901636377,0.9937912486125625,0.9949673066047343,0.9970287933686544,0.9947312832578531,
6.0606060606060606,0.9935238415455518,0.9965421677483928,0.9934512757707229,0.9984405035833476,0.9965858700294183,0.9925425672062509,0.9940074675190874,0.997370354666464,0.9939345934749076,0.9949147347330047,0.9970573267126867,0.994736650696067,
6.015037593984962,0.9936772328028215,0.9965358314499908,0.9938306523103223,0.9985452763653679,0.9966395151664239,0.9925881506566774,0.9939059455507304,0.9974808953755517,0.994053460473787,0.9950559733497665,0.9971968934693007,0.9949560322884815,
5.970149253731343,0.9937436559401668,0.9966999055164283,0.9935222699323953,0.9985317300681563,0.9967978102088366,0.9925176189660768,0.993922164245102,0.9974446599593236,0.9941166009581387,0.9950165090610238,0.9970409896244633,0.9947796859697617,
5.9259259259259265,0.9935700532500369,0.9968485080102446,0.9935466232702694,0.9985591957769495,0.9966887079966597,0.9929098063716406,0.9941374981416238,0.9974770816708919,0.9941110647903683,0.9950727580136801,0.9971176800014789,0.9947736840954334,
5.88235294117647,0.9936383627024974,0.9969335169841379,0.993905714882095,0.9986137457427003,0.9968575777195338,0.9926460614333991,0.9942117099454609,0.9976334370504477,0.9942176182075113,0.9951513974753539,0.997182326925625,0.9950437984366611,
5.839416058394161,0.9936929998791981,0.9968839920354663,0.9938179495421142,0.9985797387505896,0.9966687145242129,0.9926179257406016,0.9942566078239711,0.9975262677031569,0.9943078238678823,0.995076068200763,0.9971349853070054,0.9949287032219668,
5.797101449275362,0.9935509143228919,0.996880054625872,0.9939651769535303,0.9986284939575892,0.9968481334316143,0.992926179092067,0.9943959477844667,0.9976859859895125,0.9943952720161728,0.9952462869352131,0.9972921057352601,0.9951687499131305,
5.755395683453238,0.9940379690065898,0.996752090942689,0.9939835613138261,0.9985949782876911,0.9969314241897158,0.9930374285718024,0.994271131100038,0.9975507491221546,0.9942542893719363,0.9954097025745334,0.9973113845332564,0.99501223244037,
5.714285714285714,0.9941965405794697,0.9970052166249117,0.993919590479118,0.998650651504145,0.9969435037469149,0.9927282912289107,0.994530800237996,0.9976001865390374,0.9943144626298295,0.9952219786245943,0.997357372749092,0.995049897802747,
5.673758865248227,0.9939762588877803,0.9970392608736164,0.9941026875891606,0.9986256816541094,0.9970572491333111,0.993076665454507,0.99440704436824,0.9976504003826494,0.9943029473697234,0.9952610252669924,0.9974408444604517,0.9953316478778822,
5.633802816901409,0.994397545070644,0.9970332179132111,0.9942198103696321,0.9986344666827489,0.9970980187686463,0.9933313374480908,0.9945336917597233,0.9978096115666756,0.994636664969262,0.9952916534167016,0.9974254686906915,0.99506152741582,
5.594405594405594,0.9942380893363313,0.9970715531322624,0.9942159484105785,0.9986764051353388,0.9969334915853794,0.9930093147353163,0.9944778310152852,0.9976766333064367,0.9944171853673186,0.9953758080446633,0.9974770399863261,0.9950539619670488,
5.555555555555555,0.9942981211609411,0.9969088544280307,0.994356672078324,0.9987130799999244,0.9970340404427978,0.993303358647482,0.9943968028092955,0.9978178110864466,0.9945152482405266,0.9955319632867664,0.9974383739772762,0.9953057104847021,
5.517241379310345,0.9944553273513974,0.9970249318676803,0.9943793547759401,0.9986799597170744,0.9970920840172078,0.9932219578792509,0.9944324000894694,0.9977371268178065,0.9947141023681787,0.9955193211759519,0.9975123136285903,0.9955123441759659,
5.47945205479452,0.9942128879371663,0.997211888248274,0.9943159925177458,0.9987544325548656,0.9970612985190762,0.9935048436542807,0.994729914523922,0.997748312610289,0.994613640860562,0.99562315085869,0.9974672487080785,0.9951326313084834,
5.442176870748299,0.9945210189746347,0.996915434903882,0.9943881925939062,0.9987892838316443,0.9970141058063683,0.9935966145613218,0.9947235312357067,0.9978427919699009,0.9944648827921416,0.9957167424354971,0.9974172185737249,0.9955549843882182,
5.405405405405405,0.9943680107945086,0.9971612536655704,0.9946768040638262,0.9987045086147208,0.9970219498292847,0.9933886383696023,0.9947946168954445,0.9977089418501474,0.9948400616574987,0.9957008097161111,0.9975049644907448,0.995483338682165,
5.369127516778524,0.994188551200967,0.9974060788093793,0.9943773793433339,0.9987778893292029,0.9971600475716206,0.9936557054041023,0.9948292681331384,0.9978213255383928,0.9945749433217279,0.9957591832061004,0.9975451682193561,0.9956112116416134,
5.333333333333334,0.9945093415957491,0.9972288370913887,0.9945658989709544,0.9987196039342832,0.9970684356685877,0.993695392004651,0.9949537561491976,0.997903333586452,0.9948216364828804,0.9958361407120349,0.9975568763836857,0.9956859363054708,
5.298013245033113,0.994188563874546,0.997240250648121,0.9945600131554124,0.9988343128558332,0.9972661299974122,0.9935139731928251,0.9948037245188968,0.9978401096398359,0.9947781622848667,0.9957526874787396,0.9975172928732798,0.9955573335782342,
5.263157894736842,0.9947581658481467,0.997123983645093,0.9945808392836097,0.9988681089460293,0.9972350352297927,0.9938044875492402,0.9948797943897517,0.9977730795970822,0.9950516936119834,0.9959021506288254,0.9975327978386678,0.9953507390611787,
5.228758169934641,0.9948254171000168,0.9973295370319035,0.9947203136254473,0.9987400771158909,0.9971856060746197,0.9937916463756249,0.9950619054510975,0.9978314832994489,0.9949583040326605,0.9961723501552067,0.997698288213812,0.995585841284472,
5.194805194805195,0.9948269941517685,0.997139586569201,0.9945233709766853,0.9987260923692762,0.9974162093993341,0.9938754900912584,0.9949520988230273,0.9979052304054769,0.9950902730965007,0.9959669202397229,0.9976152639519962,0.9957589385097791,
5.161290322580645,0.9949181040061413,0.9973815301035995,0.9948622256870086,0.9988260783158628,0.9972974816170771,0.9936713659258727,0.9948795580989759,0.9977750847597259,0.9949846477644846,0.9961476276732476,0.9976992774644946,0.9957273613379617,
5.128205128205128,0.9950761180544778,0.9974088597053927,0.9947666792487333,0.9987692455243157,0.9973589799340146,0.9941141962568185,0.9950623398903774,0.9980253459151459,0.9951659391572176,0.9960808642065597,0.9977844457551968,0.9958948495608231,
5.095541401273886,0.994697684737092,0.9974441393327236,0.9949224135194461,0.9988313248719367,0.997305589517317,0.9938078610213414,0.9951965644647771,0.9979786710252946,0.9950195093055704,0.995975084411426,0.9977464811503501,0.9956102077065704,
5.063291139240507,0.9950766997958265,0.9973373159111207,0.9949515830842638,0.9988162708997346,0.9974245711140465,0.9939349238277405,0.9950899314554837,0.9978695616928904,0.995323014481488,0.9962133027832698,0.9977814794790211,0.9958645927876654,
5.031446540880504,0.9950655902692607,0.9975433849807076,0.9950983515254375,0.9989033985358579,0.9974587571765156,0.9940232352633385,0.9952639065932308,0.9980020880975541,0.995310719540541,0.9962059944176951,0.9977541382268859,0.9956972042901147,
5.0,0.995037635425634,0.9975712036160064,0.9950066018667798,0.9988830072248059,0.9974902718972402,0.9941833921976666,0.9954461439839905,0.9980756156299363,0.9954338768661553,0.9961051148372356,0.9978870831779942,0.995948764460434,
4.968944099378882,0.9950427405856437,0.9975813450523826,0.9949529498067009,0.9988620081069008,0.9974727822082584,0.9942745432846852,0.9953872053154081,0.9980448975791262,0.9952493074970793,0.9960172767786817,0.9977976595366882,0.9960201985712679,
4.938271604938271,0.9952055982563689,0.9975352108753708,0.9951829589105458,0.9989519943585324,0.9974939933652214,0.9942766962822543,0.9955149816877609,0.9981455338772636,0.9955701748953585,0.996015941034924,0.9978784047910342,0.9960342691921513,
4.9079754601226995,0.9952714599133807,0.9975949780306967,0.9952919582470181,0.9989517903440938,0.997653235772515,0.9943234678064604,0.9955944266823089,0.9981955909043463,0.9955534503280653,0.996320055986991,0.9978911464571653,0.9961317617219387,
4.878048780487805,0.9950834321167814,0.9977442243034463,0.9953457066192537,0.998997780581064,0.9975520055226015,0.9942642148061557,0.9955908475562953,0.9982211580885344,0.9952721061941441,0.996165378874312,0.9978634459340352,0.9960546383597373,
4.848484848484849,0.9953896699195747,0.9975794657470651,0.9950950513731945,0.9989234193020649,0.9976105891980567,0.9943872991154481,0.9956329359820202,0.9982361634922865,0.9954968422284038,0.9962060656231034,0.997818854878691,0.9961478645763969,
4.819277108433735,0.9952487776411391,0.997445528962761,0.9951747298731038,0.9990054949944462,0.9976939223684563,0.9946507827377684,0.995673031501918,0.9982745569179872,0.9955175008628003,0.9963257774625248,0.9978371264996202,0.9963469570407822,
4.790419161676647,0.9954606523194708,0.9977221669549343,0.9952166745987144,0.9989534173098377,0.997534164719948,0.9946097461945694,0.9957717528671848,0.9981154319766606,0.9955796035142659,0.9964464088588917,0.9978713652856186,0.996296844717415,
4.761904761904762,0.9956194783277561,0.9977219593154113,0.9953791620030302,0.9989415555793211,0.9975965630945894,0.9945659434900074,0.9957440867334179,0.9981003717289934,0.995574825453715,0.9964290274643878,0.9979339179912504,0.9961642589720666,
4.733727810650888,0.9955247948603594,0.9977404711730118,0.9954321405550349,0.9989751585814208,0.9976077710820482,0.9946227790142023,0.9958817940002728,0.9982696587412052,0.9956683817939207,0.9962987417259638,0.9981490729098234,0.996183831626991,
4.705882352941177,0.9953832281795004,0.9979351224344356,0.9955321972103123,0.9989635853437991,0.9977165982796361,0.9946478342503539,0.9955875606550484,0.9980966282237614,0.9956006789853968,0.9964519183671632,0.9980134210274949,0.9964106485282279,
4.678362573099415,0.9955114920408282,0.997804429219522,0.9957202456557283,0.9989980875398646,0.9976000716673176,0.9949069571137459,0.9959096412774825,0.9982179886320598,0.9956412957936521,0.9965241336719329,0.9980062155996073,0.9962996939800488,
4.651162790697675,0.9957075883793031,0.9977519045298714,0.9955516694814073,0.9990062732268836,0.9977855234102007,0.9948159623634728,0.9958852053533973,0.9983959800057637,0.9959627960433964,0.9966270296884638,0.9980200090241979,0.9965554882400111,
4.624277456647398,0.9955679457777306,0.9979137445746329,0.9955985210943114,0.9989889996380188,0.9977545029734507,0.9945823779358373,0.9958929958247046,0.9983079620650825,0.9962897691794809,0.9965746127754135,0.9980271986418207,0.9965343825698143,
4.597701149425287,0.9957296052808828,0.9978751307206509,0.9956743839483414,0.9990613265834565,0.997808259332657,0.9950432147354314,0.9959380895978447,0.9982129533357426,0.9959155764632546,0.9966190678529986,0.9980747520253863,0.9965246266292664,
4.571428571428571,0.9956976641896451,0.9977745114324537,0.9955959374271186,0.9990555932776568,0.997741995545258,0.994806524802052,0.9960525898309839,0.9984161389356851,0.9960578339845949,0.9966684147150209,0.9981728452821264,0.9964984844582192,
4.545454545454546,0.9958170943652633,0.997989437246658,0.9957375285268361,0.9991255854972303,0.9978468675305593,0.9948989838608173,0.9960800199499169,0.9983868046546457,0.9962233970199443,0.9967728844567277,0.9981364826513677,0.9966007446019813,
4.519774011299435,0.9957666904714616,0.9977632095588004,0.9956225329496655,0.9990724558371393,0.9979181212207661,0.9950196603649475,0.9960616009164133,0.9983518156555078,0.9961041449274034,0.9967082634833417,0.9981314434894007,0.9965840841037464,
4.49438202247191,0.9958199703965139,0.9978260703504966,0.9958019215430461,0.9990437555014287,0.997728150759823,0.9952211175632495,0.9960331706522252,0.9983440092218158,0.9961105161142618,0.9967423734592895,0.9980969154587744,0.9965337663455224,
4.4692737430167595,0.9959814874911426,0.9978227496441892,0.9957936141400114,0.9991037931412544,0.9978596073651783,0.9951024483926261,0.9961755777450763,0.9982592624660772,0.9961393416319646,0.9966781312799177,0.9980807997902528,0.9965808451313374,
4.444444444444445,0.995714007614093,0.9980164438746253,0.9959486662582808,0.999125811667861,0.9979714173286349,0.9950067743961154,0.9962933740691906,0.9984076769179896,0.9960556435311294,0.9967409095756863,0.9980923677874841,0.9967427271717303,
4.41988950276243,0.9959490457023048,0.9980287882381069,0.9959101262609361,0.9991097012922716,0.9977913568014108,0.995313851449185,0.9960852765920857,0.9983248994601627,0.9961869238077695,0.996842477004221,0.9981377347377289,0.9966783954031704,
4.395604395604396,0.9960633272475952,0.9979414233463144,0.9957907438639546,0.9990509817107354,0.9979312572493705,0.9951358397093902,0.995960205440427,0.9984222057584976,0.9964074412697728,0.9968189554460749,0.9982938025504574,0.9966736368152861,
4.371584699453552,0.9958200174838082,0.9979268619746232,0.9958900760029246,0.9991079293427444,0.9979090823363402,0.9952868661681646,0.9962813580193876,0.998410379731741,0.9963383067052329,0.9969123583116133,0.9981804821422396,0.9969505139129807,
4.3478260869565215,0.9960035617504172,0.9979925811334387,0.9959590462373242,0.9990717954558714,0.9979494310278615,0.9953567277144283,0.9962182732658416,0.9983330081473694,0.9963425859342877,0.9968444762278538,0.998244792938401,0.9964920949467451,
4.324324324324325,0.9959691654303098,0.9979430793689607,0.9958536402583446,0.9991261954913239,0.997976369716736,0.9953787037549547,0.9963236149253971,0.9984111305753797,0.9961565552275108,0.9968964233829775,0.9982317820635508,0.9968305404947088,
4.301075268817205,0.9960447387038281,0.9979879369362362,0.9958146528893391,0.9991373862022856,0.9979250574911378,0.9953820746670213,0.9964425271959673,0.9985239101608343,0.9963617289490874,0.9969491148415937,0.9982753977779021,0.9966880186635514,
4.27807486631016,0.9959282721386177,0.9980383841827787,0.9960516063660714,0.9991459209221952,0.9980449295084881,0.9953731931665162,0.9964719948568435,0.9985475530939557,0.9964422218136045,0.996968141978269,0.9982906145063986,0.9968579863784021,
4.25531914893617,0.9960859377425116,0.9979459424546337,0.9961569765327172,0.9991022359091133,0.9980847824835292,0.9953871150412484,0.9964311580499319,0.998482141404217,0.996252331944162,0.9969874176825584,0.9983910547128757,0.996791298385168,
4.232804232804233,0.9961828806792951,0.9980126495291752,0.9962470369213844,0.9991145531684454,0.9980521666217879,0.9954715211126463,0.9962908543308202,0.9984962590293698,0.9963408002929601,0.9970583481786403,0.998359632672587,0.9970058495250422,
4.2105263157894735,0.9960344256048269,0.9979769278048956,0.99620823902319,0.9991412691629844,0.9980437477321217,0.9953918526388739,0.9964254744350081,0.9984526411615902,0.9963700442863398,0.9971091103339358,0.9983528818241222,0.9970020713581093,
4.18848167539267,0.9961661031742652,0.9981055796029439,0.9962208517849239,0.9991380884688041,0.9981056029852127,0.9957286163052126,0.9964177939044602,0.9985401687739048,0.9962976185038318,0.9969949099244869,0.998312125431637,0.9967907070201392,
4.166666666666666,0.9961793041360606,0.998399890651198,0.9959957196528855,0.999193925478857,0.9982113062892328,0.9954424936046437,0.9963901921081306,0.9986319136372631,0.9966847077385715,0.9970581858528974,0.9984260074423402,0.9969527003537518,
4.145077720207254,0.9961496586909134,0.9979854026683143,0.9962631502544138,0.9991216377818423,0.9981442977295965,0.9955150791142704,0.9967145693988255,0.99848252586775,0.9965977807599569,0.9971261673306318,0.9983932741670904,0.9971338564913564,
4.123711340206185,0.9964763970032069,0.998138578434624,0.9965403950110131,0.9991775354165562,0.9980864898446281,0.9954719292114514,0.9965123591526753,0.9985802344177368,0.996640905054188,0.9972185979468762,0.998371948864914,0.9971002918762129,
4.102564102564102,0.9964808810867948,0.9981411953045939,0.996401195591427,0.9991962157021684,0.9981911363678803,0.9955677079784192,0.9964910728274463,0.9985589525209138,0.9967056835454822,0.9971953969011769,0.9983934542490173,0.9973019306066719,
4.081632653061225,0.9964162026504222,0.9981265214864647,0.9964097141874216,0.9991511800876938,0.9981977840556981,0.9957718051550329,0.9966442645669492,0.9985859553588046,0.9967607165033215,0.9971848819006749,0.9984499254335363,0.9971079189968655,
4.060913705583756,0.9964061981741102,0.9981274660575593,0.9964458545668246,0.9991681430191605,0.9981587478801114,0.9959449620530068,0.9967419831772885,0.9985417491096573,0.9966659614155078,0.9972330719640339,0.9983890130614569,0.9970049604666787,
4.040404040404041,0.9964393636938267,0.9981529278529935,0.9962562355945564,0.999192102147336,0.9981788352085024,0.9960392461862678,0.9965526433810759,0.9985747713302835,0.9967248629081736,0.9973031519312026,0.9984610872650559,0.9970219246634435,
4.0201005025125625,0.9967384380240921,0.998242304553743,0.9964124715184529,0.9992412984675276,0.9981332250122693,0.9959410038144051,0.9968687021810093,0.9987385327979863,0.9966620909392234,0.9972765131409531,0.9984168658173078,0.9971318228960632,
4.0,0.9963873359093558,0.9983058252139431,0.9964361885872444,0.9992055935745718,0.9981727393131457,0.9958709772407808,0.996729092638347,0.9986358489967325,0.9969102765129257,0.9973825094746399,0.9984004290467451,0.9973759568189247,
3.9800995024875623,0.9967339351082981,0.9981959033035076,0.9964956188233965,0.9992353280114351,0.998201449302293,0.9961434402714521,0.9967375824510739,0.9986566646779207,0.9968627971166614,0.9973727507717088,0.9984695154552262,0.9973233746880582,
3.9603960396039604,0.9966257443442973,0.998301450572428,0.9965473864373343,0.999237170180414,0.9982991526266939,0.9961441975205926,0.9969498325191011,0.9986440882879913,0.9968364447243727,0.9974110675752735,0.9984434496503322,0.9972263614859678,
3.9408866995073892,0.9965869961883653,0.9981655767965334,0.9967598168260893,0.9992583583267527,0.9982069536448047,0.9962703635828137,0.9967957210224061,0.9986975848232159,0.9967725745358118,0.9973984124521061,0.9984576103851968,0.9972194005764311,
3.9215686274509802,0.9966796675048571,0.9981795740628637,0.9964246174260204,0.9991725029147622,0.9982861005156594,0.9959703638486721,0.9968534868945516,0.9986869094102849,0.9969337185294622,0.9973379974308996,0.9985188120107887,0.9972019672180407,
3.902439024390244,0.9966775878878806,0.9982785837649976,0.9966397729175335,0.9992277028452453,0.9983169694280977,0.996155664201064,0.9969402431514871,0.9987313364327397,0.996893435297675,0.997345356042982,0.9984349369180987,0.9973729299224426,
3.8834951456310676,0.9966370050483382,0.9985009856753484,0.9966002669204824,0.9991882464702646,0.9983460651332948,0.995971986795807,0.996744309950315,0.9987072860578707,0.9967592277122261,0.9973459101995251,0.998484369806202,0.9972552118430258,
3.864734299516908,0.9966657601154841,0.9983320553653146,0.9966705715295869,0.9992152470104523,0.9982568939637468,0.9961451799278696,0.9970479103187205,0.9987564356419755,0.9969699372681858,0.9972891234738166,0.9984396079524472,0.9972953267242658,
3.8461538461538463,0.9966341875977807,0.9982243474842485,0.9966950956853992,0.9992832470017461,0.9982992365074941,0.9961147683906859,0.9968130121240639,0.9987321101659659,0.9968545159016055,0.9974771884409936,0.9984812965607001,0.9971884269634155,
3.827751196172249,0.9965513053528985,0.9984233067531589,0.9967303783311866,0.999248591376264,0.9983904371244456,0.996031133155499,0.9969439068137854,0.9987673832379302,0.9968435370443941,0.9975428527459398,0.9985736287722947,0.9975094065900179,
3.8095238095238098,0.9968441073917518,0.9984010163782985,0.9967775617233617,0.9992560752254402,0.9983651810067881,0.9962507370126318,0.9969100473736444,0.9987719634272922,0.9970127692570485,0.9974685790466227,0.9986170853449803,0.9972119805417443,
3.7914691943127963,0.9966296889935041,0.9983704177502224,0.996567603390755,0.9992906708048962,0.9984144638531859,0.9961736118670012,0.9969034421130054,0.99870373359114,0.9971230915385647,0.9974817424074913,0.9986053172638607,0.9973547094098044,
3.7735849056603774,0.996987987336925,0.9984161362377592,0.9967522361291403,0.9992551663499749,0.9984377675156693,0.996227230378077,0.9970045857189961,0.9987355625302325,0.9968773764069053,0.9976510469771694,0.9986325661505665,0.9973003869375809,
3.755868544600939,0.9967854801792321,0.9982880169000686,0.9967211892164931,0.9993283647852154,0.9984417938424826,0.996219308561982,0.9969493782001727,0.9988622270014765,0.996998315323053,0.9975505475136467,0.9986906235574318,0.9975619613599603,
3.7383177570093453,0.9969523889055069,0.9983764749429218,0.9969078871846927,0.9993020503453525,0.9984298331886078,0.9965206263574908,0.9972218277076336,0.9987061415523318,0.9971383361459746,0.9975047586563958,0.9986140012691734,0.9974007424307895,
3.7209302325581395,0.9970316160634201,0.9984799406458073,0.9968614808532837,0.9992889120659934,0.9983916108527916,0.9963162648715068,0.9972294233780165,0.998804388252964,0.9970479287926304,0.997715383298922,0.9986447507070795,0.9974256277869535,
3.7037037037037033,0.9969970242216205,0.9984885100814411,0.9970037536577108,0.9992655223433002,0.9983963005861276,0.9963616785985872,0.9969743918252184,0.9986850963178545,0.9971198425027927,0.9976021283402403,0.9986057384830233,0.9975656409610295,
3.686635944700461,0.9970209807964273,0.9984742065415095,0.9968795684737394,0.9993070200585734,0.998479713003647,0.996466867135926,0.9974108330961778,0.9988493840427562,0.9970678385235293,0.9976695056125562,0.9986647842794213,0.9977808527631474,
3.669724770642202,0.9968551658463259,0.9983549420268836,0.9967769004415701,0.9993190346072885,0.9984761548050185,0.9965828312230619,0.9973593593332921,0.9989362892330854,0.9972147815400998,0.9977061375768544,0.9986525233651743,0.9975858949250879,
3.65296803652968,0.9971510663249592,0.9984406045150284,0.9968412911059816,0.9992808544746405,0.9984624532046031,0.9965575781302272,0.9973205082170852,0.9988626366781392,0.9971061866251355,0.9975956343919724,0.9986687606011514,0.9977114836910044,
3.6363636363636362,0.9971026853257218,0.998411501028697,0.9969810080947898,0.9993529089540464,0.9985107472256826,0.9965171190301645,0.997281058001213,0.9988745266588426,0.997227268140158,0.9977251329639245,0.9986604364521635,0.9975650725419133,
3.619909502262444,0.9971182195243202,0.9984187493654078,0.9969353096298513,0.9992629635925072,0.9984514785213682,0.9965730036811273,0.997176025611621,0.9988275455173333,0.9972872574938331,0.9977570309432221,0.9986993433606858,0.9976284806696702,
3.6036036036036037,0.9971227799653694,0.9984916442210802,0.9971007634948992,0.9993788752202374,0.9985088614445413,0.9966223804755088,0.997388866751514,0.9989475528560658,0.9973252479889523,0.997736417204185,0.9986985241947055,0.9976757095886798,
3.587443946188341,0.9970193073316056,0.9985817087276414,0.9970988020573478,0.9993744028688447,0.9984861671240292,0.9967102112229606,0.9973225737871482,0.9989042289225877,0.9972962485705881,0.9976996514324727,0.99871349838379,0.9976360700236773,
3.571428571428571,0.9970463317012569,0.9985526942773407,0.9970848793127405,0.9993793142034052,0.9985084096957608,0.9966058540122351,0.9973687148942296,0.9988230596932101,0.9973100451700044,0.9977435555786913,0.9987746745171788,0.9977059466904107,
3.5555555555555554,0.9971414244777337,0.9985431703325129,0.9971433898768971,0.9993268276024243,0.9985537511979455,0.9967070367109433,0.9973396612719686,0.9988627046860452,0.9972980934237557,0.9978087181032083,0.9987011710318137,0.9977241175894203,
3.5398230088495577,0.9971157375704642,0.998611927865609,0.9971207469181788,0.9993778747545438,0.9985483115902889,0.9966958320705757,0.9973622520010483,0.9989074433994323,0.9971856273812446,0.9978363431497658,0.9987499306501193,0.9976187975263412,
3.524229074889868,0.9970708619070026,0.9985551151979422,0.9971842887350164,0.9993510520976766,0.9985883961832787,0.9967069025773256,0.9973644587154,0.9989119785063199,0.9973325644957862,0.9978321263120987,0.9987704451308272,0.9978307805218476,
3.508771929824561,0.9970284864724659,0.9986864566484213,0.9971901154666445,0.9993994517394149,0.9985779423820025,0.996700550681446,0.9974806242028811,0.9989028620926443,0.9974462337785233,0.9978937890991887,0.9987893528859565,0.997752510256078,
3.4934497816593884,0.9973027633058579,0.9985475081134447,0.9971668964568616,0.999334422971891,0.9985926489990918,0.996777276323422,0.9973816149856508,0.9989067454719639,0.9972795710888318,0.997793393206913,0.9988488054281283,0.9978165313741617,
3.4782608695652173,0.9973081536085917,0.998638266812205,0.9972595224214715,0.9993418759006828,0.9985863245606938,0.9967757073351603,0.997381009599233,0.9989208720568835,0.9974303658450053,0.9979459097942094,0.9987722327202654,0.9976959219681838,
3.463203463203463,0.9973253553246562,0.9987123531485985,0.9971516938541202,0.999397740537504,0.9985081809794091,0.9966910430976939,0.9974100462975628,0.998890258933877,0.9973789316791192,0.9977934134530444,0.998733004088404,0.9977018288037497,
3.4482758620689653,0.9973236769165029,0.9986556066384487,0.9972890596783095,0.9993964145369872,0.998613645397012,0.9968735723983382,0.9975168908528494,0.9989329095610694,0.9974878229161864,0.99786444903446,0.9986778375106544,0.9977134598295414,
3.4334763948497855,0.9973201778659415,0.9986589240097176,0.9973938211552775,0.9993799159900045,0.9985793330581154,0.9967837439271596,0.9974751333389731,0.9988874333739627,0.9975507281203124,0.9979216450021068,0.998825154983553,0.9977391819474674,
3.418803418803419,0.9973823711792427,0.998573983216229,0.9973361596122856,0.9994197894011768,0.9985590949481884,0.996929090694886,0.9975984421657366,0.9989626484070412,0.9975782758785752,0.9978827427730121,0.9987965445154909,0.9978519434501844,
3.404255319148936,0.9974232362824494,0.9986292115442382,0.9974421973381439,0.999400977050216,0.9987444335341872,0.9968221410222601,0.9975438861326175,0.9989586748160931,0.9975464330078613,0.9979084629559799,0.9988566252001309,0.9977480926602414,
3.389830508474576,0.9974079738321691,0.9986824050235157,0.9972614731807325,0.9994139939665676,0.9987022781431532,0.9968057155887713,0.9976681419001069,0.9989916717265045,0.997500907366434,0.9980459829985218,0.9988887515952929,0.9978045829376865,
3.375527426160337,0.9972611677937699,0.9987297254731244,0.9973823800777618,0.9994381435297003,0.998753860040005,0.9969041807945396,0.9975605854988591,0.9990129583527166,0.997663918473988,0.9980342685382835,0.9988593974867735,0.9978597552962915,
3.361344537815126,0.9973782006740389,0.9988013364443498,0.9974040579311872,0.9994467866303778,0.9987184961499139,0.9968879094028172,0.9975977552994661,0.9989609398620686,0.997525267723484,0.9978962192031802,0.9989533160211742,0.9978367852915819,
3.3472803347280333,0.9975539918964353,0.9985602516090135,0.9972828531906848,0.9993683767188463,0.9986790339493979,0.9970791831797922,0.9974138895074595,0.9989839565245917,0.9975833135094286,0.9980424645228175,0.9988802461158078,0.997846562557866,
3.3333333333333335,0.9973340935391927,0.998705335639989,0.9974264594747466,0.9994128645241445,0.9987395446256933,0.9969948607281413,0.99770031297679,0.9990284785003931,0.9975522704795061,0.9980089112403319,0.9987825087067302,0.9978273791746393,
3.319502074688797,0.9973493190807016,0.9987475087719997,0.9974223821097025,0.9994630388455391,0.9986335016037188,0.9971355855347395,0.9978072435070326,0.9990419192971147,0.9975046600998448,0.9980131605465716,0.9988839237428758,0.9979358073941356,
3.3057851239669422,0.9973787551746616,0.998639555999456,0.9974589793178695,0.9994156871125915,0.998766114428568,0.9971209026882458,0.9976695878806265,0.9990037736720233,0.9974699510511036,0.9981086357681707,0.9989092238288991,0.998075128413023,
3.292181069958848,0.9975804136109929,0.9987985385025773,0.9974929941109364,0.9994067307779116,0.9987663940768928,0.9969142980059862,0.9975320344373999,0.9989725579085684,0.9977543242231808,0.9981039836605432,0.9989134103427872,0.9978422560941774,
3.278688524590164,0.9975240010720194,0.9988600817439717,0.9975712169238845,0.9994208479891769,0.9988496013511304,0.9971003259397361,0.9976709951689358,0.9990343352057015,0.9978565843240734,0.9981144830699173,0.9989439294877345,0.9979482061619176,
3.2653061224489797,0.9974877687475981,0.9987519376604088,0.9974938225942789,0.9994559460548623,0.9987796869527196,0.9970052359198579,0.9976547193427961,0.9990264945637222,0.9976422150755553,0.9980735757197147,0.998913261409013,0.9979969914347614,
3.2520325203252036,0.9975293317178161,0.9988465613700237,0.9975852183419152,0.9994672596969236,0.9987946305760995,0.9971878927001155,0.9977255107299767,0.9990138369812037,0.9976876949429373,0.9981065515851381,0.9989080565093487,0.9981574200274518,
3.2388663967611335,0.99735601512158,0.9988114387361531,0.9974302606322601,0.9994260645785104,0.9988324999114068,0.9971040130214418,0.9978079899505121,0.999131453940567,0.9976601661520658,0.9981387875556604,0.9989385307569271,0.9979881015136787,
3.225806451612903,0.9973987472503664,0.9987386846480389,0.9975140722723984,0.9993799879698844,0.9988576699743296,0.997179081372936,0.9978320087832334,0.9990636600069409,0.9976991656921296,0.9981616898120124,0.9989116073666526,0.9980217646003877,
3.2128514056224895,0.9976497345721566,0.9988183541951479,0.9976036560687824,0.9993939405427018,0.9987941545669774,0.9971571538033758,0.9977387308934139,0.9989618158447922,0.997753561912681,0.9981366593155734,0.9988639858708169,0.9978964958606493,
3.2,0.9977214365488896,0.9987759332934407,0.9976086372717808,0.9994593830205044,0.9987815115628628,0.9971449436369251,0.9977092124854369,0.9990780101401869,0.9977596587681195,0.9980892211770452,0.9989595574500458,0.9979983865599182,
3.187250996015936,0.9977097676421308,0.9988568216395608,0.9976212751563236,0.9994442429266494,0.9988566948915008,0.9973059047069049,0.9977954541295287,0.9991594585089831,0.9978447505506616,0.9981910115469113,0.9989258210625532,0.9980507386246482,
3.1746031746031744,0.9975828398889629,0.9988657056422026,0.9976990520762429,0.9994829649602123,0.9988016093775054,0.9971858774759224,0.9977506982199745,0.9991014809146559,0.9976944917174075,0.9981213658409833,0.9989497037419984,0.997928559350772,
3.1620553359683794,0.9977278272625527,0.9988235627393363,0.9974597849072753,0.9994732287715683,0.9987603474919475,0.9971249348101446,0.9978484042184708,0.9991118575525979,0.9978520019024717,0.9981887724058067,0.9989523298034738,0.9981472324297919,
3.149606299212598,0.9976763932098796,0.9988040791073652,0.9975813782910814,0.9995076313471387,0.9988483701697752,0.9973603278165066,0.9978769522298767,0.9990822436668295,0.997756905498262,0.9981584916157662,0.9989874829466575,0.9981643508516727,
3.1372549019607843,0.9978444288493945,0.9989332806404158,0.9976387232473595,0.999532048718887,0.9988914159174442,0.9972633489208033,0.997929950914829,0.9991297947845817,0.9979553087841462,0.9982246882752601,0.9990113721779625,0.9982455903391968,
3.125,0.997705865180053,0.9988283184246657,0.9977779520813642,0.9995151175289136,0.9988319421472471,0.9973482846010715,0.9978267478913948,0.9990448485327402,0.9978462004794149,0.9981928346649307,0.9989461207185403,0.9981726063974253,
