,Airplane.bmp,BARBARA.bmp,BOAT.bmp,BRIDGE.bmp,Building.bmp,Cameraman.bmp,girl.bmp,LAX.bmp,LENNA.bmp,Lighthouse.bmp,Text.bmp,WOMAN.bmp,
100.0,0.40209224531235027,0.4763942834172062,0.35937660727338266,0.5753662380497566,0.44586518314912776,0.3498415790330206,0.2899356599683372,0.5216281383413987,0.3696729301352988,0.437783613785656,0.542132962406659,0.33833363560543817,
88.88888888888889,0.4392231614762559,0.53550262308987,0.4039399929414081,0.6417956798300051,0.5111754299412601,0.38655984868468846,0.34462708791323327,0.580468197343953,0.4143441496726532,0.4850701969065634,0.5906395124510257,0.3958120230712086,
80.0,0.4640988428975038,0.568030505767665,0.4288415127581859,0.6770730172302432,0.5468911601930888,0.4114506468618924,0.378255136282578,0.6112446752761617,0.443799269081075,0.513261512482617,0.617290888768666,0.4292382174656805,
72.72727272727273,0.48926187678981115,0.6016420973627377,0.4582053528775092,0.710767544169132,0.5843860569054035,0.43791323596713544,0.41531006610674637,0.6436059810222619,0.4731878438730482,0.5411692758690593,0.6446937328041135,0.46623675521745167,
66.66666666666666,0.5101266155737821,0.6267611180747082,0.48191286217344204,0.7349938062127052,0.6131231493783921,0.45891548792851344,0.44628852220487447,0.6683501915707982,0.4976406016383995,0.5628959252850733,0.668252881181719,0.4924844353649231,
61.53846153846154,0.5269742022191052,0.6456774850045979,0.5008897671060827,0.7545540380547205,0.6300257129672152,0.47613955659092605,0.46437437636644463,0.6865829716235354,0.5143663420110323,0.5776260843513971,0.6825728804741654,0.5120336015335605,
57.14285714285714,0.5400774518527858,0.6616107034539601,0.5192176847911996,0.7680280218892688,0.6486136105024225,0.49117538566608343,0.48632479451172866,0.7004473146513964,0.5298940518124815,0.5941030306579366,0.6961226954439705,0.5329318923288958,
53.333333333333336,0.5615214419728333,0.6822090149226872,0.5416792339989414,0.7878159921071378,0.6707685635811999,0.5133725117918492,0.5078111990739691,0.7193619581607837,0.5529216880258327,0.6135255561268105,0.7167102927848292,0.5600964841196656,
50.0,0.5832141331301758,0.7019584423693137,0.5655466580375618,0.801859509345233,0.6931789445954312,0.539068167323665,0.5391150729326339,0.7397023115985798,0.5783179810497727,0.6374161400855664,0.7375969580146846,0.5850729427017526,
47.05882352941176,0.5958268400387762,0.7142190881832177,0.5787697356486567,0.8136075391861082,0.7060253458957602,0.549076608893514,0.5555716424435876,0.7529850555636804,0.591340897472738,0.6480000091299988,0.745606490387047,0.6001762048862468,
44.44444444444444,0.6025229307732484,0.7246963899067286,0.5870069865297219,0.8223049454379967,0.7139597701763842,0.5565669285520536,0.5657163812069341,0.7592400064775104,0.5984261756456029,0.655898867600058,0.7519780806716596,0.6101827444545684,
42.10526315789473,0.6193979190387408,0.7379688629164661,0.6034313017657388,0.8341751652079413,0.7313769328083376,0.5731464032505627,0.5837069748154953,0.77307619035113,0.6152101624995554,0.6701016017201015,0.7656671435245974,0.6286682962196876,
40.0,0.6316984093364482,0.7510912630234803,0.6183513091707078,0.8447223387358223,0.7440817300273351,0.58863404547649,0.6033832308288796,0.7861578683437764,0.6299536198470944,0.6853518892616659,0.777035834255201,0.6436832027569138,
38.095238095238095,0.6480132300254365,0.7654334990688005,0.6363619050084295,0.8552450153249813,0.7598623733899241,0.6048015851041371,0.6223533678962997,0.797996750917174,0.6457237437215924,0.6983797853290995,0.7904973005358651,0.6622525367581985,
36.36363636363637,0.664300675733419,0.777090788135388,0.6492062390390857,0.8634488813098724,0.7722283974557683,0.6211936221804389,0.6375519233709782,0.8088399938445917,0.6633236938175424,0.7107643827671258,0.8030253483784254,0.6788195211497777,
34.78260869565217,0.6710740420627709,0.7836657128656033,0.6592509072605816,0.8701441575526697,0.7809410474743239,0.630201243850627,0.6495088185174096,0.8143768653350629,0.6703614876048991,0.7197848638192172,0.8068148006494996,0.685959109457417,
33.33333333333333,0.6789411689972233,0.78936966921247,0.6676055727204452,0.8745789289512645,0.7878048746831454,0.639158846113217,0.6561576099010585,0.8222752618148339,0.6791312170271219,0.7265286035137347,0.8128009306491603,0.6970535994953834,
32.0,0.6846530405888086,0.7961314608486679,0.6757436219893419,0.8782709245682339,0.7919118487970458,0.647062901726114,0.6663334315118256,0.8271698934671916,0.6850309320395545,0.7330521559990132,0.8175483422130058,0.7014105050705881,
30.76923076923077,0.6910645024061233,0.8010782647784228,0.682616838809296,0.883060845460707,0.7984545594193584,0.6522741166837472,0.6747527608959196,0.8336158992098798,0.6934863598736876,0.7383609207642885,0.8226059603563082,0.7115256363900605,
29.629629629629626,0.6999732231832212,0.8085276324653158,0.688636395823786,0.8884791576736305,0.8039449347905442,0.6615134944665824,0.682601088182092,0.8373364116754666,0.7024727749972933,0.7460477580585653,0.8291900962361144,0.7183445040478723,
28.57142857142857,0.7071751739894965,0.8131555909921382,0.6979331186309544,0.8911746299911673,0.8084435990508528,0.6712002450791701,0.6896887059014591,0.8416745399929042,0.7076030967951026,0.7524737408474899,0.8323048509173678,0.7241237093859811,
27.586206896551722,0.7113043799017177,0.8173403010841415,0.703250735254181,0.8946283243681433,0.8134134291485087,0.67615000609192,0.697261703936886,0.8438764952212767,0.715297143988505,0.7574237083314493,0.8382591202117584,0.7305491464855858,
26.666666666666668,0.7191398650963589,0.8237322243828025,0.7121495950205144,0.8979298739249036,0.8195614103023491,0.6837609428872066,0.7033216851530207,0.8490275450171391,0.7231956437152857,0.7628337842787559,0.8414771837706366,0.738439358809816,
25.806451612903224,0.722770071418393,0.8257294428613423,0.7161381437314449,0.9003053025601376,0.8222915522112942,0.6891814210005892,0.7087081366222473,0.8527384756858306,0.7252747594499286,0.7666129266298807,0.8440805280573096,0.743255978534616,
25.0,0.753859513096473,0.8507012523158441,0.7433776108916774,0.9083895974902397,0.8447364016265899,0.7230235564547682,0.7440392194626914,0.8685841511822481,0.760135363756652,0.7956480684182132,0.8702841389501991,0.7668359313524179,
24.242424242424242,0.7339768352943223,0.833958557271905,0.7292513649805316,0.9061485699287299,0.8295979004761663,0.7005737140889152,0.7233226930085507,0.8595943277598023,0.7382250420888183,0.7777050014052207,0.8504401818407578,0.7555746979548446,
23.52941176470588,0.7408616866006618,0.8391865572788394,0.7360300843287154,0.9077366490784459,0.8358079546172841,0.7067752650674641,0.7291940565993166,0.8640662072385991,0.7425729776489361,0.7821416997799722,0.8548728898512529,0.7622855331282616,
22.857142857142858,0.7444072385882975,0.8416772587005295,0.7385320350093781,0.9109377558145487,0.8391612182598035,0.7134274026105892,0.7333307832339789,0.8655337747680347,0.7498011674028255,0.7848034029891273,0.8579008466192715,0.764491637789046,
22.22222222222222,0.7550072365435556,0.8489986068156488,0.7499202635783152,0.9138597987118615,0.8455791598272749,0.7227038759365055,0.7486994739164411,0.8722648438197949,0.7574977562545173,0.796090651055965,0.8643262650610659,0.7749751477376717,
21.62162162162162,0.7683328669241452,0.8564040393071668,0.7635527940620632,0.9181807064619858,0.8532317667798971,0.7394117164665805,0.7562876854035959,0.8785943714708171,0.7731054121502524,0.8061204920176775,0.8721738313624938,0.7855632656051814,
21.052631578947366,0.7589580651280607,0.8520069482296289,0.7546562487807614,0.9164498254422228,0.8479767378982449,0.7268723671219427,0.7509092488187562,0.8758302014843671,0.7630905252604889,0.7976496327044251,0.8666128379715234,0.7791143218583988,
20.51282051282051,0.7642353090445922,0.8556658584413526,0.7580491009916495,0.9196327270682911,0.853383380446134,0.7330056565516234,0.756373523209188,0.8787003128548037,0.7678246540365192,0.8027766300432967,0.8698282432093256,0.7842201847624574,
20.0,0.7656078168763879,0.8582378829363988,0.760815560037968,0.9205529596698598,0.8559261279949154,0.7359077294890658,0.7605235069602929,0.8816736828458713,0.7708395175692211,0.8055295381358409,0.8742456245704916,0.7862109454363533,
19.51219512195122,0.7709229960208928,0.8614363519313032,0.7647815994882846,0.9224506677659311,0.8589830069401487,0.7401239168170825,0.7635057755497531,0.8835116880104211,0.7745540654541105,0.8090774652910968,0.8749429295710632,0.791025173157829,
19.047619047619047,0.7900005757145854,0.8687908836090477,0.7820804296088062,0.9273251291594222,0.867281632039014,0.7608264026417241,0.7815810604448551,0.8906771474528797,0.7912307576473528,0.8216873555710108,0.8842504122421336,0.8058427482307745,
18.6046511627907,0.8081886509119998,0.8790856006010149,0.8016487739579399,0.9303303018305361,0.8769858929198106,0.7839920108206083,0.800168212433332,0.896970505315574,0.8109187890735863,0.8387867625582122,0.891156129485515,0.8198857662762766,
18.181818181818183,0.7865073425313864,0.8695413068032722,0.7821772229043613,0.9290690088332167,0.8663218053601324,0.7559008102930966,0.7779115224446413,0.8914212258255433,0.7915181421821434,0.8206520797075612,0.8851506231744697,0.8055249005715964,
17.77777777777778,0.7874583826574018,0.8733240097894244,0.7838132942840558,0.9300890661660743,0.870870100799985,0.7611498724149565,0.7848819200709058,0.8924072245195458,0.79144711077909,0.8257194841991347,0.8871522705376342,0.8090611777231544,
17.391304347826086,0.7910440650523874,0.8758240449704607,0.7876840831869668,0.9317143928139504,0.8706406168514894,0.76566158659785,0.787764709685176,0.8943768595482742,0.7954846765268847,0.8267818832471225,0.8888744989918492,0.8109191821958508,
17.02127659574468,0.7968660538308407,0.8768116381955811,0.7936011616982293,0.9331671318234318,0.8746859358418346,0.7667935561151165,0.7894655943072665,0.8983871614035798,0.7996351342015332,0.8305366121551289,0.8910220751262433,0.8161690270279921,
16.666666666666664,0.8012064404247918,0.8810892855415527,0.7968660356176692,0.9348010227978669,0.877672032709569,0.7754404763563724,0.7989899554008613,0.9009931266811215,0.8066731890431613,0.8337423469433102,0.8941301774131473,0.820352709249369,
16.3265306122449,0.8036009776253973,0.8821073386432036,0.7996423027364825,0.9364801336162565,0.8798332705539654,0.7777261864681573,0.7995164308528299,0.9014427652044068,0.8079905269127433,0.8370058820055933,0.8954326233928861,0.8206447955999012,
16.0,0.8127387107628108,0.8895834481403314,0.8104316397421396,0.9381901989551398,0.8849289025971889,0.7855910670553912,0.8077827964327027,0.9056033366281993,0.8174193918972279,0.8448839770980417,0.8984071705536275,0.8284474015338589,
15.686274509803921,0.842934273454594,0.9012427057993048,0.836735622718251,0.9410192956805395,0.8987910492109511,0.8204210072783814,0.833576638899768,0.9154046570905228,0.8443141500939215,0.8692985895191936,0.9104487698375653,0.8531569033730971,
15.384615384615385,0.8282332374235414,0.8949356203572452,0.8252371188394211,0.9414495587791589,0.8932189254464691,0.8058493926311321,0.8244169203084583,0.9124001584729725,0.8321563661140642,0.8580376710550062,0.9064675848465286,0.8435560878848456,
15.09433962264151,0.8136887079580445,0.8898605621659725,0.8124144023368415,0.9412287938570135,0.8862165445307968,0.7894973126733216,0.811368745091592,0.9083754246994467,0.8187954986771541,0.8462378790459703,0.9012256912132274,0.8331878686551273,
14.814814814814813,0.8154694748444348,0.8922190795618148,0.8150512759069973,0.9419930187272131,0.8894068331173332,0.7941390587994492,0.8140823408191408,0.9081127962874633,0.8226570965116182,0.8492399301156737,0.903151318185189,0.8378806914320049,
14.545454545454545,0.8181780831200546,0.89287538979133,0.8166636968825375,0.9431207770309178,0.8908060925340774,0.792950077161864,0.8166962669239204,0.9121216248945806,0.8242335148111242,0.8490285675894634,0.9034086466359795,0.835546020893127,
14.285714285714285,0.8202382853897338,0.8939432617298828,0.8186743411752104,0.9442291993991705,0.891590326940059,0.7969739932150656,0.8186115331958718,0.9128627298676106,0.8262978507096099,0.8532735163300375,0.9068187727227169,0.8411787488651536,
14.035087719298245,0.8311106384690441,0.8990655738171518,0.8293487764080267,0.9462774415304147,0.8961665399076408,0.8080522676606736,0.8269918998412102,0.9174940097333041,0.8352458186215218,0.8600828088690222,0.9100704529751379,0.846034754358301,
13.793103448275861,0.8271825909344112,0.8981423251679059,0.8249931071211405,0.9457076218277276,0.8962088459048164,0.8025557417242307,0.823598078859616,0.915041779604202,0.8332177587681808,0.8581580629288841,0.9100202071156963,0.844455300561439,
13.559322033898304,0.8278026514046858,0.9008507909794455,0.8246481029532966,0.9459567932953244,0.8967653810962618,0.8044458516787487,0.8251975149711474,0.915522108354664,0.8319930604171336,0.8571411775098178,0.9090540136773896,0.847969018925098,
13.333333333333334,0.8313230221606311,0.902317932290233,0.8303657677653454,0.9472687459446305,0.8991705573756796,0.8078070289804812,0.8272559980568224,0.917945462459801,0.8369021227744028,0.86008825043511,0.9108831861427943,0.8495670461328322,
13.114754098360656,0.8334399298605344,0.9027567160050513,0.8327053444227969,0.9479685653440334,0.9016380899417722,0.8120610395718522,0.8312692545910503,0.9196872752558466,0.8412623423838058,0.8636792149726488,0.9135941153261623,0.8514031148470812,
12.903225806451612,0.8415522511762229,0.9062352967373117,0.8386483490100118,0.9494346429513089,0.904405628585765,0.8186167634969183,0.8373133927032594,0.9212459671503223,0.8454064297928044,0.8687281518542725,0.9168819417265728,0.8561247949353183,
12.698412698412698,0.8590619898133416,0.9148040097496565,0.8541042652130765,0.9529389395271891,0.9104604460137004,0.8387959350566893,0.8547349303449118,0.9283601008728758,0.8609494339656371,0.8816165783502089,0.9224938356238206,0.8713160334216233,
12.5,0.8716513260798167,0.9296109007189872,0.8634207767173351,0.9572651384663305,0.9274821082050781,0.8597983925163356,0.8728322186644619,0.9458381029976752,0.8786734389028745,0.8925893186993734,0.9351496953858635,0.8882732958860691,
12.307692307692308,0.8612645880377964,0.9184842565351318,0.8609296576945988,0.9537912521639289,0.9168181754340912,0.8455550095921475,0.8601651788500525,0.931883152090529,0.8673506379702675,0.8886781334745175,0.9260071782829435,0.8754064484372883,
12.121212121212121,0.8503850490721985,0.9127383403714331,0.8494242311330068,0.9516839634484092,0.9102542165615566,0.8313166764099409,0.8487147483851067,0.9274908952515449,0.8552705363413792,0.8777397119116856,0.9212971297448485,0.8678476500156642,
11.940298507462686,0.8491494085565625,0.9112090447085405,0.8463942575628968,0.9530178557320531,0.9091840615286939,0.8282539853007131,0.8464674903615748,0.9254303989338079,0.8535202700834004,0.8753121138472159,0.9210062052500294,0.8645105364240014,
11.76470588235294,0.8482787167697262,0.9108018083725767,0.8475010286699403,0.953672726469833,0.9104797047042836,0.8278523922657258,0.846891423708306,0.9268163325519351,0.8549573575222885,0.8744995266559603,0.9211257689691948,0.8665570308404584,
11.594202898550725,0.8482079758887606,0.9138421457361031,0.8482260250373695,0.953934609507965,0.9125548919821312,0.8289116225155556,0.8491381875984836,0.9281982120484055,0.8552110414443669,0.8778498175283176,0.9252735174313165,0.8671252160162601,
11.428571428571429,0.8530844009117579,0.9147388090598406,0.8515062024674603,0.9557770863876248,0.9125074446148381,0.8329433885335513,0.8515102109566746,0.9299439936200005,0.8577916546547301,0.8796131406355422,0.923004402955691,0.8701447624061918,
11.267605633802818,0.8542166168123959,0.9147670580047039,0.8551757231701237,0.9557317072970464,0.9135607248171117,0.8338322737558238,0.8534843294110964,0.9304357361527887,0.8607885142694564,0.8792690692299859,0.9236936462731218,0.8702639508553899,
11.11111111111111,0.8577952258613067,0.9185634886598607,0.8563124521870819,0.9565598190353094,0.9165537741829608,0.8370420672829875,0.85922242206773,0.9316079068627419,0.863948778142601,0.8834685458601413,0.9274635280906991,0.8723769502891845,
10.95890410958904,0.8694705809743852,0.9237529888830552,0.8638466191961672,0.9595432217075696,0.9196658947827011,0.8523110136962377,0.8665613319346607,0.9356337494631735,0.8715378740759508,0.8903860659721458,0.9306234870917032,0.8802356665382218,
10.81081081081081,0.8643393905344732,0.9219311257507207,0.8675173077037766,0.9594311674197387,0.9203342554635974,0.8480797501941301,0.8650168727534447,0.9347873136409076,0.8683360976234143,0.8901613383263562,0.929233188293014,0.8807169484164011,
10.666666666666668,0.8630630548736293,0.9202980404885469,0.8597915393711031,0.9591947600932818,0.9186380625826361,0.8444965640703653,0.8626088301063796,0.932832531810825,0.8678775120660692,0.8892836581915633,0.9289296197549136,0.8774049580973695,
10.526315789473683,0.8647757625342499,0.9222639120571943,0.8633565568634446,0.9592160839317141,0.9207472136433108,0.8468842221981258,0.865611970978027,0.9352446845775875,0.8694804689976923,0.8903503106805492,0.9311703740672074,0.8796251024545405,
10.38961038961039,0.8682462296771656,0.9217600787952728,0.8660532354990601,0.9589904034876103,0.9218424255715408,0.8508613327825129,0.8692841666246376,0.9365960929583541,0.8687717928787989,0.8943893916630792,0.9310982262275758,0.8840214477655659,
10.256410256410255,0.8673430803275974,0.9244038844602916,0.8663649603513095,0.9604073037038654,0.9223848677260514,0.8466280832261412,0.8663846784443079,0.9364191304543265,0.8713674729734278,0.8913694680671352,0.9333135516490453,0.8824384379204756,
10.126582278481013,0.8689623573934552,0.924231268879425,0.8659380026172517,0.9615769211168707,0.9230224579582909,0.8500526786151251,0.8687456863631585,0.938391213744697,0.8706071924882229,0.8931608616557166,0.9343945159986369,0.881957402588134,
10.0,0.8706492690696094,0.925619389795332,0.8742017067608859,0.9616967231792938,0.9258552435665022,0.8539592790304105,0.8702260986267083,0.9399956855864902,0.8773928022788205,0.8951008681319177,0.9354392143777326,0.8873733611605482,
9.876543209876543,0.8730173012709229,0.9270444076797935,0.8728738381371396,0.9617501333117399,0.9266871805495899,0.855599988884977,0.8720369633705168,0.9399353496033694,0.8766585466751584,0.8965744678571581,0.9355275090318221,0.8874758956070495,
9.75609756097561,0.8772314691358475,0.9303527116282347,0.8759818077323379,0.9629317530692131,0.9288761494946041,0.8615793551621396,0.8790908047256706,0.9416475251151817,0.8820995496863794,0.9008272504044503,0.9364308277056852,0.8907775603880118,
9.63855421686747,0.8854105202284173,0.9332694789915446,0.883039549937413,0.964299097768967,0.9319736186938304,0.867566128042041,0.8831887322220264,0.9449606964186107,0.8893670524410683,0.9054206509304198,0.9390447981960479,0.8986836978801352,
9.523809523809524,0.8949613080258427,0.9380947434437327,0.8910284255339898,0.9665847664591427,0.9351610890590235,0.8800662661200985,0.891843270341222,0.9472448865463835,0.8962387750765709,0.9136786757456882,0.9431690130879206,0.9048105584259177,
9.411764705882353,0.9006806951024017,0.9461034212591175,0.902389642932355,0.9678937236650171,0.9401993971996079,0.8915046709520428,0.899105916057199,0.9508173316151837,0.9030230267440326,0.920484895484379,0.947069292567345,0.912400347515932,
9.30232558139535,0.9054395865148189,0.9401369846179468,0.9000383740378071,0.9666483371374466,0.9403861476233871,0.8896996642667878,0.9024699940028202,0.9541982537043934,0.9073614395880051,0.9196647790087223,0.9462719020244079,0.9104734688926783,
9.195402298850574,0.8944259052351098,0.9379110223594429,0.8932617873357874,0.9660117226229695,0.9362199592781855,0.8805078753703482,0.8922890000413158,0.9478113445336747,0.8988863842613306,0.9128375645627776,0.943605904239337,0.9056093947724955,
9.090909090909092,0.8907459391800097,0.9350209702131078,0.8888563575629109,0.9662878779733097,0.9348416058447809,0.8738089036035149,0.8892523588918947,0.9490478620133165,0.8919519154909458,0.9083839409494828,0.9421742762509352,0.9003420935619104,
8.98876404494382,0.8860688721213784,0.9336203567871164,0.8865112873136236,0.9657610921006262,0.9334682728789585,0.8704397141809135,0.8847345701849776,0.9468354237533636,0.8887318278301248,0.9068637691172025,0.9410060208910552,0.8995054677113624,
8.88888888888889,0.8827061904543312,0.9332659331319639,0.8844125199496976,0.9661104304922353,0.9348118011740608,0.8697980359472823,0.8862898440639385,0.9476079535416608,0.8905353558054735,0.9064282609504946,0.9439438376207667,0.9014670898106629,
8.791208791208792,0.884871764522398,0.9354966645655807,0.8859255733343555,0.9666842910694176,0.9347843020854427,0.8713028641025393,0.886571382199023,0.9472013648843738,0.893020876358952,0.9074378773234552,0.9418023596167443,0.9014054204090853,
8.695652173913043,0.8865458275010583,0.9381388948240403,0.8872231048392517,0.966790363175912,0.9354197927637491,0.8718080518879955,0.8874086594638539,0.9475667471515455,0.8926579113166154,0.9086793891760934,0.9421926844629263,0.9035263266394444,
8.60215053763441,0.8896128147375908,0.9370773736657318,0.8902115082739175,0.9672452828374914,0.9353166072871046,0.8733201040131862,0.8896990038774633,0.9484186937214916,0.8925124722049271,0.9096327444983158,0.9434452123274979,0.9039174801327591,
8.51063829787234,0.8894399381332041,0.9375968540763432,0.8895973799922131,0.9676309075122822,0.9359149997425645,0.8743676052909793,0.8899593048257886,0.9490013993122022,0.8952088102383086,0.9110780509498335,0.9431811545713453,0.9049542010139311,
8.421052631578947,0.8928252695392269,0.9398147170105566,0.8916952061821448,0.968687411333061,0.9375118218087806,0.8777156341116924,0.8941045819917754,0.9495190709640068,0.8979495786370564,0.9125564551691295,0.945326074737995,0.905425483100763,
8.333333333333332,0.8962009117549139,0.9451335505828397,0.8919714308171852,0.9696999974012931,0.939784651952298,0.8794233638379747,0.8981743258538011,0.951284991019939,0.9033669002169717,0.9174994602548165,0.951389289740524,0.9079540459343537,
8.24742268041237,0.8936524806004739,0.9424000545008762,0.8974622395584972,0.9703804828660332,0.9413237638824383,0.8809736405122937,0.8957517678650665,0.9530480660627124,0.900439400333398,0.914270320641225,0.9467225339485513,0.9074392426242814,
8.16326530612245,0.8945945901680137,0.9406154144378438,0.8956757267822995,0.9687573018944815,0.9395920538898731,0.8808759561661402,0.8969138753340213,0.9510363895055514,0.8971607679814886,0.9153244369170792,0.9476476117126733,0.9087277248303561,
8.080808080808081,0.8954146903266165,0.9416500680630534,0.8964540727512906,0.9704127182308223,0.9402283460394674,0.8797997672970557,0.8968303087532877,0.9515061493994834,0.8996518325735712,0.9143586212364415,0.9471754672394272,0.9108591489673076,
8.0,0.8975390308209256,0.9414179587612119,0.8973695617030192,0.9709802362473482,0.9411117673590947,0.8859701330232755,0.898150542447005,0.9524310258947973,0.9036079846914589,0.9176409025512408,0.9501620604919854,0.9108489015871611,
7.920792079207921,0.9012394903415263,0.9449624612689379,0.9021818202830089,0.9717845521410186,0.9436755580158683,0.88955790864278,0.9040194569303698,0.9548639402278245,0.907844499763751,0.9216757847265294,0.9518595166395394,0.914941499630719,
7.8431372549019605,0.9114271719589633,0.9462860764166149,0.9083883751697721,0.9712463883921645,0.9452594711210258,0.8946315262867182,0.9074777559467013,0.9563494663644027,0.9116328819215522,0.9276433251198972,0.9522070848605286,0.9180825248519068,
7.766990291262135,0.9078726659953572,0.9464696188987681,0.9086773904615574,0.9719025986335197,0.9475534334777697,0.8960082340856044,0.9064449479776638,0.9560412426497743,0.9127402796453552,0.924945750044821,0.9520834747582894,0.9204733774993321,
7.6923076923076925,0.9069659645692795,0.9470143796007896,0.9059675250714638,0.9726954321284595,0.9458948247145614,0.8925158416512061,0.9063539145089252,0.956637805909961,0.9106894341014031,0.9245905517452926,0.9526738335773538,0.9164168163861778,
7.6190476190476195,0.9051758391892937,0.9442846962488115,0.9025324070857405,0.9728887081521399,0.9457439137905175,0.8896949003128537,0.9066288795099969,0.9552965068120274,0.9101599110811948,0.923058798750498,0.9524831153438548,0.9176618635278433,
7.547169811320755,0.9043504177201966,0.9474353934863176,0.9052492115975884,0.973328073795296,0.9470051777932775,0.8896950870129419,0.9075978928785775,0.9575514033969583,0.9093232826456658,0.924319935989228,0.9531541129275425,0.9167758671604188,
7.476635514018691,0.9045721728761784,0.946495633725878,0.903375524692864,0.9735322415367555,0.945395760191328,0.8940890656895555,0.9061059331910757,0.9547381764005037,0.9092449959004357,0.9238221376794108,0.9520435884594761,0.9199507619174854,
7.4074074074074066,0.9054997857707197,0.9474523384701307,0.9068540121949531,0.9726126039820457,0.9471587118119333,0.8929636625740304,0.9095391193329482,0.9565896804088736,0.912054211778958,0.9255788902651335,0.9523387917013953,0.9198092332573414,
7.339449541284404,0.9101389478137499,0.9489098497210413,0.9094269920576739,0.9728936502714469,0.9469035787262421,0.894738419437691,0.9091013139461557,0.9582394537991044,0.9139210767951926,0.9260977756021412,0.9546501823010681,0.9214533946119614,
7.2727272727272725,0.91127539162207,0.9507977397795705,0.9107705422331224,0.973907220927552,0.9491804208607112,0.898458699603119,0.9098095049061086,0.958673222311906,0.9123836972199163,0.9269790528465763,0.9537053056040872,0.9234583639288128,
7.207207207207207,0.9103001023167762,0.9493518363555575,0.9095589859270516,0.9740237509226296,0.9481438687797775,0.8979299296650602,0.910927335408392,0.9581735160485929,0.9154698264639671,0.9278870888351546,0.9542321601712659,0.921391697452575,
7.142857142857142,0.9112080552246282,0.9494516915670427,0.9094806218870889,0.97406508555102,0.948157875945885,0.8978485865477843,0.9112927763960245,0.9594484340095282,0.9138216689743813,0.9274691975662304,0.9551120028155714,0.9198026481746475,
7.079646017699115,0.9131931121757928,0.9501132283078307,0.913820750872619,0.9742567729605112,0.9470527614537653,0.9006908461113475,0.9111598883900229,0.9591059064426417,0.9141585127115744,0.9292404929903488,0.9543225528092478,0.9240147295950188,
7.017543859649122,0.9125389351116365,0.9522802203982069,0.9155999730426062,0.9753398233961208,0.9492910722198513,0.9007642346229676,0.9122303436023729,0.9605449759037024,0.91648122427547,0.9289576725136718,0.9563049663357335,0.9255281281330444,
6.956521739130435,0.911318978778681,0.9515291965642488,0.912175279043531,0.9752996747251935,0.9497840887914004,0.9029755797252205,0.9152622554084634,0.9592122027470471,0.9155187171473648,0.9321832807019448,0.9567905903556064,0.9240573004684506,
6.896551724137931,0.9130936309667412,0.9520332598501379,0.9140650296784141,0.9745953213100553,0.9515408018716955,0.90327844495918,0.9136495342393333,0.9606390678028627,0.9171242078307743,0.9307433201967347,0.9565403926406071,0.9242935553414575,
6.837606837606838,0.9150928335248932,0.9530154671718667,0.9152624346507269,0.97586185307701,0.9502885624227795,0.9023683698244096,0.9142686927379999,0.960420875529035,0.9175254996458904,0.931539385433252,0.9557488370947654,0.9246188550326317,
6.779661016949152,0.919187449359288,0.9504816218119724,0.9138418047711572,0.9763700561899084,0.9509227938065656,0.9032402701909503,0.9157781676715026,0.9605513766216458,0.9195670732406548,0.9312960423973338,0.9569893724934597,0.9267270988694563,
6.722689075630252,0.9179080152786401,0.952341913718288,0.9157412799913872,0.9748875688889436,0.9523952956679617,0.9045528472386233,0.9167464792698928,0.9612741816751335,0.920101434667527,0.9331243329185042,0.9596742236344091,0.9261517419548567,
6.666666666666667,0.9197526963452141,0.9524441789128362,0.9188950024373979,0.9759809518793209,0.9527608736181129,0.9063492453514851,0.9197584393228737,0.9630548420209063,0.9209148036112094,0.9341514585560486,0.9595355231173998,0.9272006221874668,
6.6115702479338845,0.920130796369101,0.9539156328824868,0.9172380750713786,0.9767736399524833,0.9542581191413974,0.9088671384401276,0.9188583138365205,0.9629324169370556,0.921967971977069,0.9346845438949831,0.9592507864864804,0.9279628987850508,
6.557377049180328,0.9215703100423841,0.9541232710199888,0.9198723613386773,0.9771480761630045,0.9544315254333255,0.9090755107583782,0.9229485896769403,0.9646273004966534,0.9238011437323683,0.9354140292346161,0.9607833082767598,0.9311317407964621,
6.504065040650407,0.9224275923288587,0.9550585286116531,0.9219627552109707,0.9766936730531481,0.956355038605198,0.9112918061890595,0.923019333784615,0.9646130299849138,0.9256164069584404,0.9381789181868779,0.9600843239001503,0.9329730791623264,
6.451612903225806,0.9256726826349991,0.9543519984261611,0.9212326805409575,0.9777688071138867,0.9565491858489772,0.914062972753061,0.924121205775849,0.964480238245873,0.9264714710603966,0.9361709628448226,0.9626714381853928,0.9338054184608453,
6.4,0.9274471168651833,0.9580332290463285,0.926112816650692,0.9784476379446788,0.9583590120621222,0.9179363096761626,0.9281303728729208,0.9657108573190717,0.9270530627459431,0.9398227370525617,0.9611422057736102,0.9353297086752258,
6.349206349206349,0.9307354199356832,0.9590410086174816,0.927960451265926,0.9768499555559133,0.9593149151674363,0.9217321866187566,0.930969803221712,0.9653520468180132,0.9326263710455704,0.9448388740602595,0.9649660944921733,0.9371369134020319,
6.299212598425196,0.9378545887366987,0.9594229375543251,0.9297872001044006,0.9796783101681451,0.9579745472132023,0.9263470694071462,0.9324927290215316,0.9678601711573511,0.9341997570745868,0.9449916253041238,0.9655680909889648,0.9423211767030979,
6.25,0.9290515534151104,0.9606592872536608,0.928640851889246,0.9806727214324462,0.965591444982539,0.9345310014411078,0.9430406105165372,0.9732658582995266,0.9353859527520162,0.9486826255809695,0.9672587767760993,0.9464171959496278,
6.2015503875969,0.934752790844244,0.9624226826284794,0.9351210044762945,0.9803670136846435,0.9615283486961811,0.9255366895501175,0.932002878068049,0.9680530876657446,0.936409165772132,0.9453753497964771,0.9669144034017687,0.9423334696666874,
6.153846153846154,0.9315911563671563,0.9611280322746197,0.9317193748769973,0.9798841434316314,0.9590704590046342,0.9240488694748052,0.9313817658900356,0.9689049739673966,0.9341706275950916,0.9442606314634815,0.9647350128001096,0.9412610303856304,
6.106870229007633,0.9318621539898192,0.960287658553281,0.9277057924967077,0.9800192250263159,0.959465906441241,0.922001218215202,0.9299730364997416,0.9680022334875605,0.9327424155797924,0.9433340596505393,0.9654262850366021,0.9391472935193895,
6.0606060606060606,0.9285248352944815,0.9603952308009706,0.9292801883083728,0.9789665161093623,0.9596416208630794,0.9187977927775637,0.930295674600256,0.9673544035810471,0.9332152678302513,0.9427237208162063,0.9648812062344733,0.9397779266660008,
6.015037593984962,0.9288993970416219,0.9597159640737573,0.9290517329722571,0.980141006125997,0.9593359007135455,0.9199170019339052,0.9306591234183557,0.9663301394888324,0.9309144632356209,0.9431183291205537,0.9643584681212142,0.9397011242711262,
5.970149253731343,0.9275397073813115,0.9598870713061413,0.9282487169129983,0.9796511782634612,0.9593945744243477,0.917870700274434,0.9293460117901705,0.9659817871939698,0.929221410158563,0.9426206131365155,0.96458065396477,0.9378026243567691,
5.9259259259259265,0.9296853645715245,0.9587198460756109,0.9294804084258431,0.9798473806128413,0.9575837958730142,0.9178465182753719,0.9288315941376216,0.9661905269162283,0.9301318469968614,0.9415097824181818,0.9635534012292183,0.9388269997957981,
5.88235294117647,0.9288092080752441,0.9602214154571267,0.9289994282171129,0.9797268489581662,0.95884266194147,0.9169914811806724,0.9301192136260634,0.9674923302261523,0.9295130977385134,0.9405726243585181,0.9643170642276104,0.9381131498545917,
5.839416058394161,0.9280250635900682,0.9596266314597965,0.9279456298060332,0.9797906957277084,0.9592600253479511,0.9201091125168928,0.9309117204020485,0.9671138420489208,0.9329004639933998,0.9427211100613619,0.9646258869330957,0.9373227809885499,
5.797101449275362,0.929849369689601,0.9603225624716756,0.9293798455017751,0.980251494228589,0.9599622372534856,0.9204778987383736,0.9301957844629175,0.9691345565475199,0.9338548142413386,0.9450513419936168,0.9664226581574569,0.9410755083330946,
5.755395683453238,0.9312226456868353,0.9611424348074059,0.9289419372100541,0.9804860773500357,0.960577794828342,0.9209797589431586,0.9324362188693165,0.9677116197229187,0.9344693151835778,0.944840170570152,0.9657962799304864,0.9384356574136249,
5.714285714285714,0.9318461356242738,0.9608181709757526,0.9316525595175874,0.9804472794431074,0.9611592637501332,0.9214159184387138,0.9337422126852907,0.9682059872235442,0.9331603481675359,0.9444583928590358,0.9657382387113529,0.9394173616006004,
5.673758865248227,0.9340023851321411,0.9611716958531579,0.9318057974659565,0.9810779802381862,0.9598757880481776,0.9253980838381183,0.9343405738015678,0.9696207932856463,0.9349650466468206,0.9447308144468308,0.9655928868203647,0.941273584961343,
5.633802816901409,0.9326242372878178,0.9627022699593962,0.9346886948219013,0.9797057328876171,0.963263024813881,0.9249151088224357,0.9351341706436469,0.9694602013020757,0.9365987222879205,0.9463728768335817,0.9671519327883935,0.942155949733308,
5.594405594405594,0.9358315429417396,0.9600818835481237,0.9316462255470387,0.9809509058281245,0.961764665802661,0.9249905953356106,0.9321367785697359,0.9690635963289159,0.9351685631728023,0.9454399626134752,0.9670698751964396,0.9419956733057939,
5.555555555555555,0.9335824328269505,0.9617442006131247,0.9325036175012981,0.9804140781208345,0.9618837835127114,0.9251013277136837,0.934107339252673,0.9696566406785212,0.9349629954894018,0.9459366434475572,0.966567714564108,0.9414749930555376,
5.517241379310345,0.935453578192123,0.9629274434120235,0.9353974552340875,0.9815065260683787,0.9626953936557665,0.9249444938032985,0.9367188718755838,0.9699841986068545,0.9388784353162897,0.9486626458687516,0.9688900776550076,0.9449203195431835,
5.47945205479452,0.9370118516492313,0.9640735063861983,0.936117434164908,0.9819142941152771,0.9637063865193072,0.9293834707269077,0.9380328770018659,0.9714881889032482,0.9389429037337856,0.948128633944497,0.9699183469690762,0.9437981839999598,
5.442176870748299,0.9362018011993303,0.9636148618367467,0.9379580644808138,0.9820966811292693,0.9633985436123738,0.9275256008817206,0.9342329924632997,0.9705793932258816,0.9384522505611833,0.9499756180468335,0.9677048809628429,0.9451126651160161,
5.405405405405405,0.9370847072847694,0.9643243719710823,0.9357547766428549,0.982168337322114,0.9637672563489023,0.924955433873525,0.9360722791305365,0.9701735418371117,0.936886618847005,0.948747050509783,0.9681155468935311,0.9461298843659235,
5.369127516778524,0.9372156628583962,0.965437014509057,0.9374661903962965,0.9819204843864887,0.9643766056860296,0.9279852828127975,0.9376765343788346,0.9721541648445527,0.9394640887014216,0.9503044929798502,0.9686210420682603,0.9474164542960286,
5.333333333333334,0.9371859632982064,0.9644600034658567,0.9369948746169149,0.9818336122853186,0.9637407544775471,0.9301691003887251,0.9367975722282027,0.9705467807841456,0.9398497456381083,0.950263958262742,0.9677177498714712,0.945216965579308,
5.298013245033113,0.9379659330612637,0.9648370708213881,0.9376183246625179,0.9832891104545467,0.9656441961174387,0.9288594785470315,0.9408167429380258,0.9731724927703479,0.9398864386375342,0.9505418104314508,0.9689315806590859,0.9464539817860945,
5.263157894736842,0.9399143591938839,0.9628396817821184,0.9367416792068793,0.9821345849514059,0.9652467637644271,0.9322524359266926,0.9404817822617595,0.9725400595473136,0.9405501725401858,0.950228522608589,0.9699462381005874,0.9462740084580471,
5.228758169934641,0.940509296705954,0.9653809815482619,0.9386874354355297,0.9822133045279315,0.9652730672530956,0.9305829118278852,0.9402509036904343,0.9714606318692766,0.9436110499622081,0.9524234822227186,0.9702391512829057,0.9472732744016529,
5.194805194805195,0.9414196941833249,0.9635241575798534,0.9376607268428764,0.9824372700069604,0.967328824951056,0.9346339945796857,0.9414331154945013,0.9723915935887834,0.9429251863698926,0.950388400461227,0.9702968883248254,0.9492480917391656,
5.161290322580645,0.9419758813690928,0.9675173360070372,0.9417446762223032,0.98234151441742,0.9650979975718695,0.9298962920253627,0.940162312451781,0.971917374172176,0.9449344650717363,0.9530355497614958,0.9708699089124216,0.9481889161688538,
5.128205128205128,0.9425870726925878,0.9668987621302741,0.9411837587098947,0.9826781693833165,0.9650185899311198,0.9308723073711072,0.9387471203593601,0.9720938290265215,0.9428188357603567,0.951959581263451,0.96991826394204,0.9485524295437924,
5.095541401273886,0.9400323413237069,0.9650280942424371,0.9379488022346624,0.9834517862317295,0.9659866810532167,0.9320368536092649,0.9412801288985829,0.9730593273934829,0.944392560483554,0.9523407294108739,0.9705048355137439,0.9472684287204073,
5.063291139240507,0.939000672097707,0.968548656624304,0.9394769557184048,0.9839916779733929,0.9676989084648635,0.9302815506114898,0.9412124191644485,0.9732513901983099,0.943108712129819,0.9531071693459071,0.970142104025368,0.9491951011064673,
5.031446540880504,0.9404169930085082,0.968102661289127,0.9417457231062303,0.9839749427569509,0.9670763039526076,0.9321103824175119,0.940511530660625,0.9738305966543963,0.9419578316016746,0.9530034292512756,0.9702606756685321,0.9481943301237689,
5.0,0.9415435970216656,0.9693079926887356,0.941027740639815,0.9837962437471487,0.9674936799282079,0.9334158111639345,0.9415167308374661,0.9742661973585593,0.9443316552996834,0.9531612037653028,0.972249366812911,0.9493441174853781,
4.968944099378882,0.9408411256186,0.9667602852164866,0.9398122806886487,0.9838746472622848,0.966882200581442,0.9346644061410211,0.9449025524232488,0.9736505527984946,0.943761321546066,0.9529184003460963,0.9716812024150973,0.950283588731985,
4.938271604938271,0.9433911514538873,0.9690737523821619,0.9421981650961938,0.9844964997655472,0.9680668774523651,0.9359694562430775,0.9437188585761722,0.9731875336929448,0.9467873310716362,0.9539628016863093,0.9730241805633937,0.9501134531880676,
4.9079754601226995,0.9449753737230273,0.9682898168686932,0.9414661092498194,0.9838934408365299,0.9678711355230507,0.9342589255239837,0.946705798658429,0.9748928035683045,0.9469162938673515,0.9538774179623397,0.9724533409919938,0.950346858747336,
4.878048780487805,0.9429352414167583,0.9699601384531031,0.9452566187785321,0.9841864591290466,0.9687945081334002,0.9365924242745253,0.9458754800880973,0.9748951942149569,0.946467329069913,0.9553085657918997,0.9726762565259112,0.9512312953529181,
4.848484848484849,0.9443910360244748,0.9693488999840044,0.9440126513372639,0.9844337909904756,0.9683267517105019,0.9350962045333453,0.9437695485991484,0.9752702833867384,0.9460870501547992,0.9558669096232033,0.9721741706447212,0.9526128980631332,
4.819277108433735,0.9451866701857743,0.9690730404161293,0.9433742101731961,0.9853118999190743,0.9692669942885356,0.9373579206042126,0.9458129547503247,0.9757304406447475,0.9473630976349159,0.9550915758111859,0.9735930397495947,0.953192606563688,
4.790419161676647,0.9460838828098967,0.9704490044205255,0.9458296334744487,0.9848705612814193,0.9689251289847645,0.9360752823550854,0.9460029624318932,0.975938563510869,0.9469821214515098,0.9556902402654519,0.972999326709798,0.9522663842828292,
4.761904761904762,0.948529983194108,0.9690275939904006,0.9453867273906252,0.9854522964843234,0.9702263901910102,0.9410825356187404,0.9479528727989252,0.9766794055854795,0.9486860177435855,0.957838678359405,0.9736203693499903,0.9546460279534428,
4.733727810650888,0.9482442245131573,0.9713097110975457,0.9469736361139811,0.9853009940993435,0.9707846881287225,0.9405673477534419,0.9483610763069397,0.9769940951497572,0.9500833115477773,0.9567709812825421,0.9756802345503818,0.9550992666550535,
4.705882352941177,0.9498649966888845,0.9740122291746368,0.9494775137496605,0.9859875963841467,0.9721196938190458,0.9449638070435062,0.9508538415298686,0.9777224946348096,0.9520786219005758,0.9611370265529378,0.9745608305730723,0.957678871653823,
4.678362573099415,0.9485868600507545,0.9728944219541548,0.9510212451270903,0.9856169079765669,0.9717805762241012,0.9439444437899359,0.9519478875426868,0.9761424074487124,0.9491288341216689,0.9597648011831799,0.9747903641652829,0.9550559965958731,
4.651162790697675,0.9484246619587375,0.9726714377327335,0.9487300087712098,0.9857041402637376,0.9724110221397552,0.9418628557464357,0.9506737114362674,0.9779879296905,0.9521209032459511,0.9600262417405588,0.9751088107245671,0.9561054339532279,
4.624277456647398,0.9485461658171619,0.9717800145140875,0.9493111234190643,0.9859733994716697,0.9725890815368801,0.9426420038409712,0.9515890609289495,0.9771126272915794,0.9523218299036784,0.9593017885554206,0.9743148270210515,0.9549944066348391,
4.597701149425287,0.9489767977764564,0.9711376014611086,0.9490242226101702,0.9852624831913402,0.9701976417359024,0.9432537240888709,0.951373654887418,0.977161751212305,0.9523061947472075,0.9590728238814739,0.974811746503615,0.9558253157296684,
4.571428571428571,0.9511210260492541,0.9709020009083111,0.9492839915743579,0.9853154823510294,0.9717892914619496,0.9409216191421977,0.9487147041333996,0.9787299831431456,0.9522043480814948,0.9595232234232609,0.9749343701112743,0.9567798790808456,
4.545454545454546,0.9493923884648671,0.9722937970227233,0.9498626207934027,0.985795798016006,0.971920248462855,0.9429076043485951,0.9501044314982495,0.9771242679234716,0.9511352571348238,0.960466554062765,0.97568509366618,0.9559441210472486,
4.519774011299435,0.9510162322423046,0.9716035535734416,0.9480988862840938,0.9869130757259453,0.9725208232082596,0.9404910470667325,0.9523644418805912,0.9762004867553572,0.9521761744053967,0.9609150430323822,0.976238804777539,0.9584601485716638,
4.49438202247191,0.9494769225987189,0.9733205378904127,0.9494464877392896,0.9861182119068309,0.9718652128133192,0.9427264329913614,0.9503685948547521,0.9777496218012942,0.9513315596638335,0.9595314396084592,0.9761901278055377,0.9587295247185806,
4.4692737430167595,0.952684308651967,0.9736605789052009,0.9500328260486476,0.9864555508069632,0.9726478745709595,0.944325711255568,0.9519408470794404,0.977744707690245,0.9529525311531739,0.960568434419426,0.9766111342358332,0.9576747834992825,
4.444444444444445,0.9530304996289002,0.9729090856529647,0.9525614050253182,0.9873699708255302,0.9721856908151478,0.9468350444772995,0.9524645182953687,0.9778254522953408,0.9543384552991403,0.9614936705514806,0.976406272507983,0.9582431550955589,
4.41988950276243,0.9498883391841573,0.9734549064068135,0.9511043545725658,0.986357372358272,0.9721957808741328,0.9454095181644615,0.9507175385419738,0.978098677203868,0.9539540936677512,0.9613812604182992,0.9758893640940552,0.9593878908963308,
4.395604395604396,0.9524942543201895,0.9735970116598287,0.9509239030101506,0.9858416234734144,0.972516866471595,0.9452017404462297,0.9556646729033527,0.9790488317263321,0.9535475424660274,0.961093752006018,0.9761639293083575,0.9594752138851634,
4.371584699453552,0.9549091805233945,0.9727500575098545,0.9524943304271206,0.9872828169165373,0.9735626557253731,0.9451246613488432,0.9533519144237521,0.9791903152232606,0.9555746419901576,0.9618374099064368,0.9763441295823333,0.9595179022352608,
4.3478260869565215,0.9516191703817403,0.9749074512871041,0.9557063623746815,0.9869389551021596,0.9732682309445709,0.944408201174223,0.9525074853623161,0.9783711790584317,0.9551150871197605,0.9618008596313227,0.9772274046438246,0.9598935479020891,
4.324324324324325,0.9536555262408911,0.9737043765527666,0.9534272092115517,0.9866994285780576,0.9738399465001739,0.9471752504229962,0.9558439469884185,0.9788360804525694,0.9542540153383823,0.9638515724080373,0.9776664411105769,0.9588587788485782,
4.301075268817205,0.9530963358071711,0.974808511610063,0.954033911153104,0.9878183444462285,0.9731484843822855,0.9470800115541784,0.952885178463977,0.9785777910259931,0.9569101873234406,0.9618699885725799,0.9772459653901582,0.9598275109433947,
4.27807486631016,0.954217665691586,0.9744529074927631,0.9545747777822822,0.9873102405987817,0.9742995941265148,0.9472494337498855,0.9539258294596341,0.9790738699687777,0.9562231581695313,0.9622321196325438,0.9770451865069939,0.9600562613139857,
4.25531914893617,0.9546976402697067,0.9742141422510316,0.9550980636923303,0.9878393602157982,0.9746885172520517,0.9472751727036844,0.9565345291339673,0.9811264016386122,0.9557122083471986,0.9634266166128382,0.9775086352101907,0.9627184674371975,
4.232804232804233,0.9561358618881818,0.9741663268670003,0.9538509071240199,0.9879517517636105,0.9750694256729765,0.9495957349375318,0.9555821776191615,0.9799881268149564,0.9561679372324908,0.9647244842688304,0.9781722389398293,0.9602716106029023,
4.2105263157894735,0.9568280259229722,0.9755031751789515,0.9560942735779313,0.9876685863993597,0.9748900504374105,0.9485487407795633,0.9567816851840907,0.9806079696438139,0.9574467301220476,0.9650954547934625,0.978876781270777,0.9625772459543013,
4.18848167539267,0.956963611400724,0.9756250577225574,0.9535266546273561,0.9880529402917023,0.9763257427189563,0.9497588509294569,0.957356998850234,0.9808153554799649,0.9580896776984565,0.9652395367188858,0.9793812375246647,0.9628671649285235,
4.166666666666666,0.9551343772749097,0.9781790810558013,0.9540232409737238,0.9880095396108739,0.9759967644833992,0.9497081777062301,0.9598778490273161,0.9816387559389607,0.9593207608597271,0.9649995369504185,0.9795631337349158,0.963615039753673,
4.145077720207254,0.9563469093420789,0.9764482814885627,0.9568659420935006,0.9880473610433258,0.9767683056562344,0.9505479458633487,0.9573136466703402,0.9801674868345986,0.9580100136522699,0.9654647029687158,0.9781221284230868,0.9620270576957765,
4.123711340206185,0.9574973937710937,0.9757898740023403,0.9583947317158853,0.9879498957950594,0.9771244403881009,0.950743238169953,0.9555667393851097,0.9810998353765322,0.9590651917396315,0.965212508176321,0.97860119094666,0.9628403574251472,
4.102564102564102,0.9581312258987679,0.9769149167750704,0.9587939604937319,0.9878613098004108,0.9761788296882984,0.9512942924973441,0.9576005862043743,0.9811177568071885,0.959925160419174,0.965158966153867,0.979121034308567,0.9626128524386336,
4.081632653061225,0.9574326158878242,0.9752143591619838,0.959357066133216,0.9886313125580309,0.9771407122998258,0.9521602165542701,0.9583108122851639,0.9821961324805342,0.9586798032976891,0.9663140139539893,0.9792984918001687,0.9639012288353034,
4.060913705583756,0.9592731666270947,0.9761951678612687,0.9573700026991558,0.988122418042251,0.9760816295141018,0.9509455351198773,0.9591039522823817,0.9801857233190534,0.9603125657853288,0.9667697655663753,0.9801257197762872,0.9654173578116871,
4.040404040404041,0.9581736607282837,0.9767546368494459,0.9571507418634412,0.9886152076819721,0.9771664690430086,0.9534807472484749,0.9591832717650937,0.9807669849927988,0.9609555242098223,0.9663604230020392,0.9802233918073979,0.9624576011733089,
4.0201005025125625,0.9579553844904211,0.9778468423287037,0.9576134441738611,0.9893120980900739,0.976882967221829,0.9520006044506665,0.958625349346601,0.980889493728961,0.9613410974808824,0.9663313885985169,0.9805157110304903,0.9650760391169866,
4.0,0.9592638772762929,0.9755882610087874,0.9580970348765274,0.9885332151414323,0.976742279676413,0.954517686987587,0.9605760604967418,0.9824664680499711,0.961130401035991,0.9664461894492509,0.9799663515695158,0.9658393262998463,
3.9800995024875623,0.9580458400439656,0.9779644108544646,0.9569819119114029,0.9888226624873785,0.976957484786136,0.9514735464562717,0.9603494884368554,0.9818295726261429,0.9594843040617818,0.9667205172045338,0.9797573504568377,0.9656301873621589,
3.9603960396039604,0.9597467765359372,0.9761749004479406,0.9590268481277799,0.9886867776007234,0.9768104090143125,0.9523558459050917,0.9595919065265206,0.981671423999567,0.961621574493991,0.9681312004406168,0.9813038675023945,0.9656438614790174,
3.9408866995073892,0.9606421603296957,0.9786736453501682,0.9615466852517638,0.9894948649132611,0.9774697073224008,0.9533882615708585,0.9595261757616443,0.9830896179473316,0.9611124465324347,0.9680275949451848,0.981319968508672,0.9648613612808096,
3.9215686274509802,0.9621630846470511,0.9764316724499259,0.9599522757569153,0.9887458438344416,0.9780754995675546,0.9530473329313867,0.9609929190761276,0.9831830355066798,0.9635421198961851,0.9692580789007046,0.9798021729883363,0.9651915919385605,
3.902439024390244,0.9593752278707273,0.9769648358971116,0.9606620225698742,0.9895219724654871,0.9774407325126778,0.9561458251896903,0.9618077408497866,0.9818031550354378,0.9620754261128485,0.9684520295058262,0.9803399651422109,0.9659776934080002,
3.8834951456310676,0.9600227120652138,0.9781430878730433,0.9614202356224602,0.9888320605914487,0.9779618367578912,0.9554007971883614,0.9614806865276896,0.9824326165099883,0.9646000740995455,0.9678387096245886,0.9803316451658692,0.9647239851806788,
3.864734299516908,0.9606826880783796,0.9790063365340227,0.9597955034928959,0.9885474591254151,0.9782378415769384,0.9546212476391718,0.9613978502245021,0.9828326413652503,0.963048683621569,0.9694745941476689,0.9811318613047733,0.965944385955949,
3.8461538461538463,0.9617673537609116,0.9776133824851642,0.9600005089647297,0.9886249480761324,0.9768845618932495,0.9568851146837833,0.9621450733347453,0.9817991944534142,0.9632300483317005,0.9685617924155949,0.9807823387575616,0.9662664462105585,
3.827751196172249,0.9623525743376934,0.9785046466041355,0.9614426779153564,0.9897023919786273,0.9786341940385425,0.9568820989492239,0.9627689107304338,0.9822327393130881,0.9648456133337047,0.9704414322952635,0.9814189733203629,0.9682796710923639,
3.8095238095238098,0.9605046494444617,0.9792745765667562,0.9603012134564993,0.9889787584053715,0.979690855660019,0.9560851829862214,0.9639962770265551,0.9831932282732069,0.9640411227434021,0.9688547869790781,0.9824082593005007,0.9675827257276496,
3.7914691943127963,0.9628070957339344,0.979506175123282,0.9596829390439852,0.9899462075243004,0.979512266864624,0.9556440669104617,0.9634208455163125,0.982735965844337,0.9648920614129699,0.9689690977800839,0.9822734721182538,0.9678411404564924,
3.7735849056603774,0.9638455822551711,0.9790646966990085,0.9628397636895055,0.9898152605178171,0.9792914882074719,0.9570003339366957,0.9623465317987504,0.9832053430241479,0.962519098897838,0.9703816509952198,0.9814185134986166,0.9679385609126715,
3.755868544600939,0.9637096497263195,0.9789563942276821,0.9634227167754535,0.9898152373851145,0.9791747704414874,0.9561543974261345,0.9633239894818962,0.9832625518060917,0.9636443239380309,0.9706842609063501,0.9816588355115161,0.9691171482289979,
3.7383177570093453,0.9617720797577943,0.9787842382663646,0.9627595128054456,0.9897133611125735,0.9792504128850494,0.9573629604996629,0.9631292929889741,0.9824007658173464,0.9648530974591896,0.9700822674815502,0.9813197210289353,0.968658926981895,
3.7209302325581395,0.9647167263531118,0.9792917328001598,0.9632113068553457,0.9898667779501672,0.9796490782746445,0.9573630163209634,0.9628231875693584,0.9831503379680003,0.9658841869789321,0.970826915992378,0.9819695346235495,0.9679261653498294,
3.7037037037037033,0.9628756407316179,0.9798815481273483,0.9642272254874632,0.9903856126494769,0.9802459789826212,0.9565795879043859,0.9638938677106881,0.9835391518197095,0.96592924917423,0.9706332690689639,0.9820483231961791,0.9687753464518921,
3.686635944700461,0.963137130878641,0.9789927330388511,0.9630111825481791,0.9900244090036143,0.9805250207995189,0.957460769679951,0.9657693031681184,0.9845830595273934,0.9652933125856651,0.9710692494139589,0.9820883665012609,0.9695164777280647,
3.669724770642202,0.9639482311631138,0.9797848928387086,0.9641783518235626,0.9898730022289938,0.9793521108831281,0.9584916649600351,0.9637052438105297,0.9842744910047299,0.9655940100858549,0.9707189950772979,0.9819462644131884,0.9690873002406982,
3.65296803652968,0.9638097255080218,0.9802902755626435,0.963801090578638,0.9903780522353584,0.9804682918393945,0.9584215901731783,0.965593830048078,0.9839163780765432,0.9656306143646364,0.9711977737480254,0.9825730146386393,0.9689250842093866,
3.6363636363636362,0.9642892043023592,0.9810182839289251,0.9650403787156697,0.9901264449163274,0.9802496798458719,0.9576023963457589,0.9638762827160506,0.9835372872074877,0.9652773858406896,0.9720803137035198,0.9822292806642481,0.9681970426108506,
3.619909502262444,0.9634037520864646,0.9795966665033475,0.9642428319721267,0.9896262275254494,0.9801344473606554,0.9591718806980619,0.9652617903802643,0.9842633202317713,0.9660098263349096,0.9708440569810275,0.9824646201913626,0.9692143768123378,
3.6036036036036037,0.9651934504949768,0.9802167922868801,0.962655839037377,0.9905141928354319,0.9796183491784377,0.9605585286674188,0.9660271707005481,0.984498322376327,0.9664370961249471,0.9716771930093744,0.9829984465829578,0.9698796967697533,
3.587443946188341,0.9648814671012677,0.9817828069884287,0.965522963371579,0.9910669042642115,0.9812727595507027,0.95882663630503,0.9670105200743699,0.9861771129726691,0.9662572620561792,0.971331850555528,0.9837419399146158,0.9712268931246816,
3.571428571428571,0.9662379628036066,0.9806366791845522,0.9658535224670094,0.9906505551822242,0.9817143491425613,0.9597117684234407,0.9651054281774646,0.984463843439116,0.9682259602282827,0.9730542170923043,0.9826919670687168,0.9698444930056437,
3.5555555555555554,0.9645570086945664,0.9809239251631013,0.9656646855349519,0.9905154534731693,0.9809640829581545,0.9603360799647552,0.9666212134736638,0.9846170245665073,0.9674496128712058,0.9727082528456248,0.9831915823696963,0.9708469785490391,
3.5398230088495577,0.9654267183856007,0.9817207049230212,0.9645700627110894,0.9906059323161719,0.9805605585707619,0.9607521398593761,0.9668546799323406,0.9843999994861098,0.9679640671492454,0.9731316959137839,0.9833696904715211,0.9704946219158707,
3.524229074889868,0.966338404044891,0.9805460382174219,0.9661484024760979,0.9909604477274979,0.9809075518671836,0.9610729821712164,0.9681325694272307,0.9852963827702097,0.9679364221550086,0.9731314699032141,0.9833243599827358,0.970961399863125,
3.508771929824561,0.965470723645172,0.9827899927553333,0.9654586928037263,0.9912516153105884,0.9814595357642212,0.9605145950944747,0.9676979952349112,0.985425074269798,0.9684458263393487,0.9732012481934104,0.9831385313455289,0.9698257398824321,
3.4934497816593884,0.9663877429210624,0.9809131122780481,0.9649892707993576,0.9913690139901001,0.9812431517273082,0.9606407873397085,0.9660933251155959,0.9852518000186673,0.967262322491407,0.9721964804637331,0.9823897924837405,0.9713080407454466,
3.4782608695652173,0.9660500118588485,0.9819946512255137,0.9666334154611972,0.9907774602743713,0.9815246947004695,0.9615291236274789,0.9677045811747533,0.9851533301650391,0.9692089102065592,0.9749304162576056,0.9831119254098792,0.9715860762848396,
3.463203463203463,0.966724044225346,0.9826816440568021,0.9663831022197321,0.9908947490251391,0.9814575298250143,0.960607131370521,0.9677744242824494,0.9849729136127936,0.9686089694524016,0.973203548447078,0.983903540500796,0.9712516130308182,
3.4482758620689653,0.9678739291559476,0.9822904793806458,0.9662540974461266,0.9918241375645662,0.9820007928345735,0.9643007694122803,0.9668500297023501,0.9850943847102304,0.9690867914996043,0.9743297769980717,0.9848305201426967,0.9709556014476853,
3.4334763948497855,0.9675903136773477,0.9817973900939283,0.9675133200810174,0.9912610165995438,0.9822864781289813,0.9638251403438064,0.9681869477766992,0.9846848155399296,0.9688650453034948,0.9735986894879389,0.9838494366456707,0.9715813933611691,
3.418803418803419,0.9689934165226028,0.9806073162218043,0.9666588911324469,0.9907244987152944,0.982153175528853,0.9628505196748455,0.967224923553732,0.9851034297716176,0.9668438417957307,0.973739615893965,0.9838203509329607,0.972327337939704,
3.404255319148936,0.9683099199593839,0.9834612920556667,0.9682151509665112,0.9917320548685928,0.9818638703185641,0.9634104929922692,0.9669099834129915,0.9847998807154706,0.9684949314683183,0.9755489423623807,0.9847281489242805,0.9720847440416727,
3.389830508474576,0.9690481831708295,0.982422552325743,0.9690394160062452,0.991122510552793,0.9824296654220972,0.9638019199208591,0.9684682915507702,0.9863446849113044,0.9689596945475044,0.9748429706929685,0.9846620104082248,0.972931597921454,
3.375527426160337,0.9692771090869878,0.9830755228212326,0.968404856658924,0.9913598438590315,0.9817905779103663,0.9632698567380309,0.9692591233131416,0.9856196066638402,0.969312740342679,0.9735813772441826,0.9845433209018934,0.9730779074087431,
3.361344537815126,0.9672959384099449,0.9836159891694919,0.9688433863484649,0.9908377840665569,0.98316964121459,0.9630698690420127,0.9694606464605101,0.986652647424839,0.96983989514962,0.9745570712478012,0.9850059755743605,0.9738333207532773,
3.3472803347280333,0.9680865709583301,0.9833524177469711,0.9683747457743057,0.9911181804613106,0.9822191050418857,0.9639953370370632,0.9699829041490521,0.9852968779481721,0.9706930800684206,0.9760930880574544,0.9848903057454834,0.9733583279862649,
3.3333333333333335,0.968683130490604,0.9824932300939089,0.9686000787417095,0.9918955134572587,0.9824108000522488,0.966027048794394,0.9713962100968141,0.9864194712365784,0.9712484712190814,0.9757378963444678,0.9854397268548414,0.9745550164145976,
3.319502074688797,0.9693516093767073,0.9829293523966586,0.968491478242428,0.9922985983944214,0.9833534092156209,0.9660678393396812,0.9696842943286913,0.9862342765091942,0.9691940306851679,0.9766244649953354,0.9854194435387209,0.9741502403109856,
3.3057851239669422,0.971500472147479,0.9830567989629982,0.9687843995039015,0.9921376223737699,0.9835055167520566,0.9653771997181368,0.9713938260408982,0.9867984840722378,0.9721984028886215,0.9766690392198394,0.9861667209683047,0.9737339226184822,
3.292181069958848,0.9712357063715285,0.9832546733334799,0.969317436969342,0.9914733625178342,0.9835667571934016,0.9655387380402467,0.9709779544741922,0.9869069828519732,0.9712109286701155,0.9762767594108351,0.9851768269277381,0.9715040873811907,
3.278688524590164,0.9710298990722315,0.983252930152036,0.9694438098063852,0.9916016038828775,0.9834422235472582,0.9650274653316683,0.970291557596277,0.9857503148124063,0.9716645826060045,0.9751960919041355,0.9856111689446426,0.9745045532498197,
3.2653061224489797,0.9705041583525862,0.9822331126587858,0.9686319859411142,0.9918815057520929,0.9828901370077022,0.9674654406201993,0.9720736939809675,0.9872573283314172,0.970557605147693,0.9759530017458997,0.9843081252222737,0.9735085207202377,
3.2520325203252036,0.9704321628862864,0.9841067437288104,0.9693161622000731,0.991407093380324,0.9836060016149586,0.9662647089206077,0.9709635806712436,0.9867081113447761,0.969543594342775,0.9761885279566214,0.9860790872494488,0.9738168546788761,
3.2388663967611335,0.9700211053215919,0.9834376627517952,0.9682925491113228,0.9923788328179836,0.9841673173622435,0.966528716674642,0.9711938946887908,0.9877335349088628,0.972571046520871,0.9764979121364793,0.9858805580740054,0.9753818469842673,
3.225806451612903,0.9716766552950319,0.9825073222607837,0.9710965791319519,0.9917009497301159,0.9838609987500441,0.9657912520889841,0.9721626990393744,0.9863094236247276,0.9722464868589317,0.9776018377269696,0.9872154303758461,0.9747461473289102,
3.2128514056224895,0.9705550941500876,0.9842152461022025,0.9713094660665135,0.9918038629572561,0.9833975973558151,0.9673080740386008,0.9715402791535425,0.9876728839857414,0.9727451062022541,0.9753984092607373,0.985377821834712,0.9743788691098921,
3.2,0.9705738941746621,0.9839660064587166,0.9715646636635492,0.9923254410050147,0.9840951310010909,0.9676856036116329,0.9715312018890786,0.986769550263438,0.9704532624832501,0.9765992219173136,0.9854260749302781,0.9745641252303336,
3.187250996015936,0.9699709414782361,0.9842542254329121,0.9697295248305682,0.9914862334299328,0.9837297277293421,0.9657240198962603,0.9713124469662655,0.9875661517913371,0.9737215463774025,0.9773108853459067,0.9860277677402312,0.9766352998262599,
3.1746031746031744,0.9713813441125476,0.9849766368089365,0.9703037722730565,0.9922451240311994,0.9836377578951002,0.9650304062275592,0.9708495617747751,0.9868363251195033,0.9734524257745883,0.9758751554634449,0.9864943037778833,0.9752682552592423,
3.1620553359683794,0.97221611406884,0.9840617223209331,0.9705183977243117,0.9917230209421467,0.984302068769461,0.9675281904474453,0.9731200794862472,0.988160403338081,0.9735335945506868,0.9776916304822393,0.9859910945677068,0.9749868073265862,
3.149606299212598,0.971734759111905,0.9848137478342938,0.9719018820317791,0.9924500838849509,0.9847462829469024,0.9679771949004684,0.973583590937263,0.9880680131869982,0.9713141485024713,0.977248221975937,0.9861728571812312,0.9755887654089574,
3.1372549019607843,0.9716217328548256,0.9856003394830365,0.9723912973547469,0.9929012806804817,0.9842340327506112,0.967775764140521,0.972677397207466,0.988153683143596,0.9732964544442908,0.97727916435192,0.9869993444192502,0.9773007388161075,
3.125,0.9708935893977351,0.9839194659775196,0.9719367449292984,0.9925050634469352,0.9848191451822158,0.9680310842307207,0.9728953775184735,0.9877298481091618,0.9732533521662928,0.9778999944309189,0.9872703148664878,0.9750087963046954,
