,Airplane.bmp,BARBARA.bmp,BOAT.bmp,BRIDGE.bmp,Building.bmp,Cameraman.bmp,girl.bmp,LAX.bmp,LENNA.bmp,Lighthouse.bmp,Text.bmp,WOMAN.bmp,
100.0,0.18896035549754278,0.22619660152730076,0.1904010211884992,0.2693330577592083,0.2081310679400075,0.18062333537641564,0.0942358570263886,0.2671412531448875,0.16382848621634324,0.21239442995911084,0.2764353539529317,0.16577212584929457,
88.88888888888889,0.22343292198055095,0.2798435755332689,0.21887764068243673,0.34046753076733954,0.26100313589729374,0.20896970328141626,0.1317760532217941,0.32039329162857777,0.20179362546453875,0.2638814100795747,0.33296764081734065,0.20263970671231382,
80.0,0.24820732038064397,0.3108187425281366,0.23457388106837854,0.3837777086793021,0.2914400901515836,0.22880019595881032,0.15291424812988486,0.3516033593169,0.22661989440489447,0.29472492700264413,0.3614013593462365,0.22453675117522442,
72.72727272727273,0.2712446734950904,0.3465074201656036,0.25625682733237437,0.4269209132714314,0.3266038535034811,0.2480979687404895,0.17857989350661704,0.3800417175206284,0.24790724738827355,0.322650834168372,0.39594865905881954,0.2504566204368601,
66.66666666666666,0.2885047487706333,0.3708179685708088,0.2711108796090828,0.4589640288767429,0.35115480605077753,0.26412255435180454,0.19817767961044858,0.4084654270217297,0.26886616273331176,0.3438558555790201,0.42162000912623576,0.26870753757871896,
61.53846153846154,0.3030315537631866,0.39061131488202167,0.28514959481385477,0.4822090100422086,0.3689753333147405,0.2765615868030321,0.2154308500129348,0.42784947196740436,0.2819864118384498,0.3588744241711869,0.4385050147581522,0.2825323190001896,
57.14285714285714,0.31704802072886246,0.40874640546588425,0.298853169768241,0.5054784896867334,0.38737158724906057,0.28906452294029145,0.23175952146158255,0.44650153403941373,0.2946172850219567,0.37554504502303676,0.457115185447438,0.3006537383852597,
53.333333333333336,0.3358019969617686,0.4308960937571603,0.3187253042806122,0.5338904346408159,0.4131966797731555,0.3058601349609878,0.25242339345994247,0.471491784949123,0.31880922357375474,0.3932984792121816,0.47928327046485875,0.322656732655508,
50.0,0.357228165190223,0.4600313407726941,0.3394068384396125,0.5579380665761042,0.44322807150530585,0.3257673943617732,0.2804265688274369,0.4959687056373785,0.3383553957961343,0.4171894571500066,0.504747825784011,0.3475756331638537,
47.05882352941176,0.36810897249597385,0.47168881250002104,0.3495849976798662,0.5755702753263505,0.4517406457944222,0.3339102174848401,0.2907728601760576,0.509966558924477,0.35109076392044425,0.429191688978909,0.5153922562716934,0.3584194860189158,
44.44444444444444,0.3712781439073772,0.4835378449942628,0.35580222919584725,0.5882998881169742,0.4642953177178916,0.34098661421082,0.29802675012592544,0.5205663465620491,0.3565517699967533,0.4375408307113917,0.5265599568180849,0.365584617979147,
42.10526315789473,0.3897338183367853,0.4995322803940979,0.368658132555496,0.6057294140250968,0.48436450342317294,0.353721582727889,0.3144620373462232,0.5384976401226215,0.3721084422780026,0.4527305856354929,0.5431375693625857,0.3800071683606033,
40.0,0.4023719468021864,0.5168562560908543,0.3839066996237827,0.626327704623382,0.5022627867362225,0.36759113210913696,0.33327247253231973,0.5554376292315082,0.3891086552852175,0.4676433795740251,0.5563736110119383,0.39501130508186943,
38.095238095238095,0.41572087361503746,0.5349702204324479,0.3986351333104184,0.6435109298245651,0.5208306409382782,0.38071634336342147,0.3493040060308291,0.5727809360085979,0.4026498100104457,0.4800074411500213,0.5715768773626264,0.4133831154275376,
36.36363636363637,0.43036809871822285,0.5495451378788211,0.41297963371645907,0.6599915398663802,0.5373101871305461,0.3950273003469909,0.3657709966800539,0.589287818671478,0.4172516980580701,0.49825290024671265,0.5859845724346044,0.427965883749931,
34.78260869565217,0.4376013955016884,0.5604302686944498,0.4205081963511197,0.6722769080278258,0.547216310749256,0.40385940632021616,0.37693437364569116,0.5969084103035194,0.4272316029698173,0.5054286162827673,0.5948906130691775,0.4392246888604316,
33.33333333333333,0.4477637340083428,0.567641043379805,0.43215472920016734,0.6815773335116831,0.5574519298399707,0.4113237934602527,0.3867641555741001,0.6108335506547734,0.4379550339234206,0.5120391261131255,0.6076919169315701,0.4493142019987917,
32.0,0.4539188987449814,0.5774241869061582,0.43798437856170674,0.6879846213220485,0.5645380445508021,0.41739511202772067,0.39632026244635626,0.6139110681283544,0.4425842846990898,0.5198904746210322,0.610833354254101,0.4565246339502067,
30.76923076923077,0.46193088919920894,0.5849245193836525,0.4463047329184332,0.6949508438643099,0.5719639892047398,0.42096765437081096,0.40469138117676634,0.6265273937504409,0.45162238004422445,0.5254705877351674,0.6210566612180869,0.46424164022090986,
29.629629629629626,0.4743188663140707,0.5983155805799036,0.455161883686659,0.7074378523794642,0.5847993978534275,0.4342704433647069,0.4157402603582613,0.6331901681492389,0.46353570039095426,0.5370954296944807,0.6317177880402014,0.47529814668675063,
28.57142857142857,0.4799746750903585,0.6039952428106209,0.4653692498864426,0.7134204013106443,0.5914733872525536,0.4410089759799686,0.42432034652350753,0.6419288246255904,0.4702116360474561,0.5423495788864114,0.6376612897312034,0.4838688902252175,
27.586206896551722,0.48471989149130207,0.610515294501374,0.4688221413847089,0.7210109961057924,0.5999010574880436,0.4462939204328925,0.42991011934259254,0.6492221152966698,0.47754045180142823,0.5496400441456182,0.6427971338512581,0.48902984530161314,
26.666666666666668,0.49595205417986066,0.6192599287894104,0.48153913285403305,0.7275534239450926,0.6098770219000351,0.4559707062633291,0.44381371094909783,0.6571297003684892,0.487894840109251,0.557860302898536,0.653494095956728,0.5013593360311581,
25.806451612903224,0.4969734148224546,0.623381520267887,0.4809414747964263,0.7309453986780323,0.6124311366767203,0.4575249253438924,0.4454226767598531,0.6593692895492269,0.49071061216703843,0.5594245965288762,0.6560410506702204,0.5036642210519041,
25.0,0.5609977889902007,0.6726500553799631,0.5479853395628419,0.7611339080760755,0.6652597428724564,0.5317762211969651,0.52065738799742,0.7028813557432589,0.5598516146084078,0.6194429203779338,0.707743868029279,0.5652530597670562,
24.242424242424242,0.509031356939176,0.633004676775066,0.4962343118924945,0.7455165922394835,0.6244424671145252,0.47119756030244186,0.46229114271222277,0.6709153596936246,0.5033783178816379,0.5724929972647761,0.6680483881908377,0.5161820167642236,
23.52941176470588,0.5214707752462882,0.6447574700889687,0.5037829480962008,0.7501466299848171,0.6339574888691449,0.47996146804123824,0.47226516765364257,0.6825223842482135,0.5137646275089983,0.5809441372775951,0.6750778807235326,0.5287940750947059,
22.857142857142858,0.5246106710156193,0.6479760487219861,0.5054350735691217,0.7550447071820489,0.6364761821922108,0.4824819352939063,0.47669951357422075,0.6830134335933579,0.5151940656486294,0.5815346571065424,0.6788162110220313,0.5313366060028873,
22.22222222222222,0.5422017798300774,0.6618058107072158,0.5251969130625738,0.7666981315613675,0.6527142609730938,0.502353644070585,0.4982302387634428,0.6963282141071968,0.5330512785148502,0.6006759011001516,0.6922174441137463,0.5506892478111565,
21.62162162162162,0.5644400894709802,0.6812506437891488,0.5518434878784503,0.7756935165856637,0.6697953625742168,0.5256518051987171,0.5218816606094964,0.7129931961763083,0.5592836673959173,0.618384193702118,0.7082559383097172,0.5745940567755591,
21.052631578947366,0.5414467902814066,0.6644705745898359,0.5239152741774052,0.7674659790227906,0.6527314191072304,0.49928348305563164,0.49812737651641414,0.7017463998406855,0.5331289877273709,0.5978059635685016,0.69326378098882,0.5501791123940817,
20.51282051282051,0.5481842593055007,0.6674045052886258,0.5283573811336763,0.774442436855688,0.6605353739389009,0.5054547507444288,0.5038763866328161,0.7059236168000717,0.5407464340644564,0.6050899222944981,0.6998548493263023,0.5567774872105713,
20.0,0.55323964676809,0.6742214881039295,0.535667895178408,0.779946809423471,0.6666452493434769,0.5096207857534976,0.5119820187473805,0.7109619866526719,0.5465495100537366,0.6100710703488245,0.7047608442780554,0.5623259595130244,
19.51219512195122,0.5592541369658159,0.6813607009415554,0.541404777543297,0.7830662931564951,0.6712495915761003,0.5186304349737402,0.5195443047845594,0.717433031281948,0.5541412336647248,0.6136120432032205,0.7089567804225105,0.571834359136202,
19.047619047619047,0.5939915227261512,0.7067698588037863,0.5792997991868277,0.7987621593819064,0.6960526251992069,0.5534205709081742,0.5589292727466882,0.7358537409877397,0.5869222443038035,0.6435944123115421,0.7302493724258684,0.604013662081748,
18.6046511627907,0.637075044345775,0.7334484607580317,0.6296057738355323,0.8141303933817214,0.7293458284329402,0.6087234380243363,0.6087059905295696,0.7594691533616447,0.6345975867775433,0.6891798676514584,0.7567518820001468,0.6494106448894594,
18.181818181818183,0.5769349496857641,0.6962886503644073,0.5619732104224627,0.7950736767842327,0.6875409495144487,0.5354394368027567,0.5383957304577168,0.7337636454872292,0.5718468971109886,0.6310801508096389,0.7267962344243437,0.5878473173392835,
17.77777777777778,0.5803513602000544,0.7001070090283706,0.567568129625873,0.800636643167005,0.6921054040608582,0.5401927049359054,0.5473020730377703,0.7331832772620589,0.5765993962430153,0.6381961444904851,0.7273358267439558,0.595308457981338,
17.391304347826086,0.5835445430675564,0.7041402847084781,0.5669619695417105,0.8020389077788286,0.6940992479447841,0.5441762040518041,0.5482401871263934,0.7368472186583862,0.5777055596150932,0.6377923473479358,0.7302001244328158,0.5969347232736077,
17.02127659574468,0.5883621906361818,0.7078163768779222,0.5735531226835883,0.8061007974652964,0.7000598584704136,0.5466946860378816,0.5550698642650207,0.7436044535826036,0.5832641164854366,0.6445316981123876,0.7344713726728087,0.6007203378885543,
16.666666666666664,0.5972558977260843,0.7153680393243326,0.5807009069000795,0.8108838606662605,0.707860593811313,0.5589151380527041,0.5658937427855577,0.7502755445669818,0.5959983910623916,0.6514235422965793,0.741440861353186,0.6105944966000372,
16.3265306122449,0.5986695983445867,0.7161382031416492,0.5853420144167837,0.8143724297724035,0.7061454695215886,0.5577853486827736,0.5644414262402371,0.7502609337848206,0.596600645475054,0.6531257306445521,0.7414088601307661,0.6129526880535143,
16.0,0.619186602654792,0.7321095305086026,0.6086742675066434,0.8237266687922273,0.7249951065002902,0.5828361364002906,0.5925977057357251,0.7655749118417421,0.6160771516195641,0.6712930255552889,0.757733887386935,0.6344037465737566,
15.686274509803921,0.705521344459797,0.7848500479487119,0.6942633221744899,0.8438816691243216,0.7742125172259537,0.6777930237528282,0.6737385364350631,0.8013424268405728,0.7008488528429643,0.7441424225454818,0.8003860750686179,0.7097367545447063,
15.384615384615385,0.6605782985033568,0.7573689866807982,0.6501774083511613,0.8366992804837455,0.7482393606072688,0.6267396739974999,0.633331866177373,0.7830219186483471,0.656053902949933,0.7063326579494282,0.7794142813869026,0.6716903930396771,
15.09433962264151,0.6207477144898785,0.7378627796443389,0.607721980433802,0.8270526180420587,0.7268986044815476,0.5815916336773769,0.5916921395723302,0.7673348911273703,0.6190759799987389,0.6737034153266204,0.759096621357851,0.634898821691798,
14.814814814814813,0.6211232094120754,0.739585643381707,0.6127187568191799,0.8301061944274757,0.7316954485676694,0.5882065754312984,0.5952031079232508,0.7698576531891834,0.6229308433383385,0.6756836792348965,0.7611168490442857,0.6394419295242441,
14.545454545454545,0.6267213292896813,0.744392594293761,0.6165928711782785,0.8346489863262264,0.7346509667976705,0.5887677912675686,0.601737250468009,0.7759298553340838,0.6261691226018204,0.679908674135443,0.7635987207300101,0.6427472221053309,
14.285714285714285,0.633440537712847,0.74600781628952,0.6220033012238677,0.8341782349178677,0.7390210282629064,0.5950910757435177,0.603153745438595,0.7781429555609466,0.6302529759041089,0.6839940579296262,0.7710037314874587,0.6485089846426425,
14.035087719298245,0.6556664210099101,0.7575207679693173,0.6460760578324541,0.8427746654095651,0.7527214885649931,0.6208285649692407,0.6285377325980612,0.7878586986401471,0.6547663062183967,0.7019358363005944,0.7812464849578014,0.6669124118834729,
13.793103448275861,0.639000428949024,0.7538673063166069,0.629602969147528,0.8398783933529618,0.7456383809153662,0.6028231233066228,0.6148919025211007,0.7825067819917851,0.6407498724860018,0.6922462579951222,0.7780888951929994,0.6582220413682439,
13.559322033898304,0.6404373203613691,0.7565772435863014,0.6293040193084174,0.8418706950872322,0.7455607497662151,0.6045377003980386,0.6171000843022117,0.7856403541097091,0.6421905662850662,0.6942993408855793,0.7778783457614306,0.6589415179482284,
13.333333333333334,0.6474593190177904,0.7599548840050026,0.6369320206971602,0.8452277732538065,0.7560686667976277,0.6106722598594772,0.6220616516914345,0.7909428807827632,0.6492678076408874,0.699947572355277,0.7803151647813779,0.6636845402415845,
13.114754098360656,0.6480080703429222,0.7586931500913554,0.6364751940746257,0.8440594212815844,0.7533677418061515,0.6142589206362181,0.6254181709843314,0.7900695889685458,0.6496079849035107,0.6968493886203617,0.7797302931481084,0.6660511078059764,
12.903225806451612,0.6663408739416293,0.7680585004636237,0.655298527027016,0.8528837308045706,0.7646148737768139,0.6294457386274888,0.6407328080544784,0.7989659980608533,0.6656093600224714,0.7124530408740218,0.7912880236340191,0.6793805472880939,
12.698412698412698,0.7153029187272635,0.7962992652949002,0.7033167468684918,0.8655266706905851,0.7908966887856823,0.6826188356818645,0.6917115717772061,0.8212387296219835,0.7101487613076279,0.7505849307061329,0.8171010420668621,0.7237182180387505,
12.5,0.7604538632668831,0.8369831267506929,0.7502123955438624,0.8826635090031045,0.8340056986193012,0.7477936886721189,0.7507348770289692,0.8633434800347829,0.7650552650453495,0.79398975839779,0.8485322342141264,0.7747046881556657,
12.307692307692308,0.7191379679618757,0.8037043852826635,0.7136138029290666,0.8702885775968858,0.8009349899026488,0.6959141048649222,0.7007286923967513,0.8296290623326154,0.722414950502801,0.7627047018758965,0.8198004462182924,0.7332762384545496,
12.121212121212121,0.6815694477196745,0.7820887839121465,0.6725595925863301,0.8596948391695391,0.7765966380964916,0.6460040629454334,0.6594963295229238,0.8110872698642577,0.6796066035972324,0.7264767042269067,0.8044689924270696,0.6993482475809579,
11.940298507462686,0.6725447211509423,0.7757556512596138,0.6591810607660095,0.860778792320533,0.7695125547110881,0.6346282680352898,0.6473732020908508,0.8070602509675034,0.6726802267115815,0.7199902848819559,0.7980952180123871,0.6874334066791202,
11.76470588235294,0.6726201935769036,0.7803899648267706,0.6619860897449543,0.8593391495487308,0.7746093855052025,0.6354365536874723,0.6534382349219379,0.8086261910101139,0.6736737024895001,0.7216861685706668,0.8038414428909866,0.6918545456686508,
11.594202898550725,0.67490615931044,0.7805365571469391,0.6622205338323432,0.8614234803712875,0.7733045811195289,0.6354336714485458,0.653282076562903,0.8103114509690805,0.6747726698462869,0.7193954192429439,0.8024735810251938,0.6911091984275521,
11.428571428571429,0.6841757211564128,0.7867046433182483,0.6726526799219493,0.8656278927914973,0.7765118938224572,0.6470395089081278,0.6636851998914797,0.8176455372230914,0.6824777385832582,0.7264866565042282,0.8072687451008721,0.7006639722242682,
11.267605633802818,0.6826274068755791,0.7870891465006519,0.6761623562622578,0.8664006821491582,0.7793492349820614,0.6491646632019731,0.6653645847033497,0.8141303889755803,0.6859468360983972,0.7290691713151234,0.8050753541278259,0.700690463862311,
11.11111111111111,0.6912820176604372,0.7908688323947533,0.6814266098644701,0.8680484400444901,0.786369753420788,0.6561812471166799,0.6737897453578564,0.8198430997098004,0.6906157912265563,0.7358720575881581,0.8118562358884178,0.7084404767513491,
10.95890410958904,0.7304932474173145,0.8137269950287255,0.7149986526516892,0.8780413128555841,0.8046806118112124,0.7050970065627113,0.7081864920394902,0.834808522006144,0.7240425558144947,0.7646615442788403,0.8271332024398494,0.7370610774326626,
10.81081081081081,0.7091778595805539,0.8024435257336682,0.7005120873950179,0.8771489304999264,0.7992463975875248,0.6747628477256725,0.6898879055938368,0.8305184580421359,0.7079207881222113,0.7491370712077045,0.8208484975547554,0.7256991034439325,
10.666666666666668,0.6959937028443163,0.7976747409048698,0.6861296397805304,0.873815959028174,0.7898055930037863,0.6619361959749267,0.6790204549627639,0.8216748993783078,0.6939393156203744,0.7416087713612406,0.8153747200025828,0.7121467587093523,
10.526315789473683,0.6963909432601841,0.7996317108617149,0.6843941104978836,0.8719587524676128,0.7912821348107479,0.6669620606372647,0.6787556300807114,0.8254015152222993,0.6958716708270266,0.7424273838124299,0.8168548214856565,0.7145564720997524,
10.38961038961039,0.7065602810940684,0.8048254016068753,0.7004200001639461,0.8751974611361474,0.8009773270275546,0.6763537554924681,0.6900978259274592,0.8294426249110249,0.7060314078792255,0.7534027231652379,0.8242284891834113,0.7276895188640496,
10.256410256410255,0.7067970563899075,0.8019583569992029,0.698141957113963,0.8778815590686367,0.7995755297201819,0.6709382583571885,0.6883715346081537,0.8298704814964344,0.7063488010772195,0.7498463002836037,0.8272346993690062,0.7236688864947207,
10.126582278481013,0.7043685743156854,0.8041858269986689,0.6959176286946976,0.8792492646495293,0.8002894953283184,0.670131129060388,0.6853646393772661,0.830989788393677,0.705445701048988,0.7493185180202306,0.8243941973538964,0.7237035303977252,
10.0,0.7111659861245968,0.8095269237860095,0.7051466952960863,0.8810044902731736,0.8065100284001768,0.6789833517916423,0.6953209343900673,0.8351010468156767,0.7142559766608962,0.757210400420755,0.8283570578263041,0.7309584773055785,
9.876543209876543,0.7193935939064094,0.8105789367761992,0.7069348149205512,0.8830472097748678,0.8090967665337592,0.6883803251149917,0.7009152932028522,0.8404063758020678,0.7191149799306791,0.7570765569659978,0.8324333626945308,0.7325481258992591,
9.75609756097561,0.7275928411889878,0.8220125880753323,0.7202281842174325,0.887340233697467,0.8148433313568266,0.6959157186323238,0.7149367367730219,0.8444410334619673,0.7290501624194778,0.7684965489377138,0.8367922404510454,0.7448320593051766,
9.63855421686747,0.7532063332054573,0.8346866906641004,0.7455843184291364,0.8938608780879334,0.8287311467707767,0.7241939311300138,0.7366222473468145,0.855332824603933,0.7531507926392113,0.7883236491056622,0.8462067174590348,0.7683729025999687,
9.523809523809524,0.7774521258971555,0.8455272468141752,0.7681125015078711,0.9021339422885919,0.8410868823814538,0.7544580497550496,0.7598183090440145,0.8667752149467691,0.7748164681135787,0.8108971396576292,0.860990129521426,0.7894372892200244,
9.411764705882353,0.8036411245058067,0.8683551135568838,0.7972791952039865,0.9074833096028639,0.8596733056013202,0.7904667262080062,0.7875934955120543,0.8785135917695139,0.7981511829102903,0.8347001277572961,0.8729321602809764,0.8119479833594959,
9.30232558139535,0.8013540629519733,0.8598595068777636,0.7944842216268583,0.9077732868403566,0.8569108108844159,0.781677990821849,0.7892961823598241,0.8800789583744717,0.8023154951268764,0.8303982263622035,0.8703770187809571,0.8066019671928052,
9.195402298850574,0.7784606325039516,0.8486560773567787,0.7697500109502463,0.9014435578360419,0.8428964681566503,0.7512000723556252,0.7600226143328598,0.8666580538812472,0.7770261644094428,0.8091139583117871,0.8613160345335575,0.7884511830020842,
9.090909090909092,0.7581299050129913,0.8390899983727667,0.749261582230091,0.8983330578898803,0.8326727404479564,0.7302059598844067,0.7433680034041761,0.8611313602609446,0.7567661278634921,0.7940288829803936,0.8533575123156011,0.7707871228514358,
8.98876404494382,0.7446901910201476,0.8314002387366135,0.7392847042306246,0.8966580719444714,0.8280984799887819,0.7156160638311325,0.7326068097077703,0.8565360468819815,0.7467311013759715,0.7846255168518452,0.851283456066105,0.7597526526771319,
8.88888888888889,0.7405571868561482,0.8308268295894414,0.7350195648241075,0.8956132523530995,0.8240203858557008,0.7097706200893766,0.7288339382850971,0.8558925776505887,0.7431729816849223,0.7804368302114448,0.8488683554373466,0.7594332455386229,
8.791208791208792,0.7430556738596649,0.8307113497034266,0.7308013745402453,0.8969063827340965,0.8256574807381459,0.7110111493673836,0.7239589823123274,0.8537770791069632,0.7405830355836459,0.7781602377532356,0.8466577139328606,0.7590093736091031,
8.695652173913043,0.7424151673938031,0.8339415893205072,0.7364820207522838,0.897806468099275,0.8285600262751378,0.712855447283929,0.7322804485467272,0.8555855255973847,0.7456548188853122,0.7799994059603458,0.8495222799051578,0.763075557690123,
8.60215053763441,0.748287985571774,0.8344739100345093,0.7440426201915625,0.8997704333254413,0.8279582099733495,0.71881693197372,0.7356449842463989,0.8600283629437829,0.7472652587763428,0.7865286401509385,0.8498920412726667,0.7670746036062726,
8.51063829787234,0.7499082987950528,0.8345846476629062,0.7368126918271484,0.8983899146550505,0.8343141724674525,0.7183695352338074,0.737168692633815,0.8600410108973939,0.7509596595550853,0.788214752141323,0.8486944300638863,0.765864190065928,
8.421052631578947,0.7569094627883366,0.840172699182375,0.7523604765584827,0.9024320712883062,0.8373435745063205,0.7300158625428681,0.7458488882816975,0.8645430587872113,0.7585583181040215,0.7948031962553633,0.8555238188239376,0.7738483542143436,
8.333333333333332,0.7659249426884789,0.8527090420504325,0.7595487773645528,0.906550513752017,0.8459888455588482,0.7399979973812016,0.7579071475238892,0.8675373838587196,0.7750854841597354,0.8059255252648013,0.8682707856368383,0.7839087063024618,
8.24742268041237,0.7582003805526201,0.8458607140296642,0.7555133080402577,0.9039064254897359,0.8422757116566367,0.7344234992226722,0.749360910151108,0.8670595453686958,0.7620988696458489,0.7984426779087034,0.8600356479409784,0.7760275955540459,
8.16326530612245,0.7602070388526451,0.8408062853957258,0.7517623550047786,0.9050479712752091,0.8347763655256512,0.727417300954493,0.7452864185695708,0.8633330884629732,0.7573761812846764,0.7960061588700773,0.8605318653542928,0.7766279224241822,
8.080808080808081,0.7598794558924428,0.8441936227394571,0.7518013353275426,0.9062551128652819,0.8397061768680459,0.7291717190164466,0.7458364377490138,0.865123199700616,0.7613835133151221,0.7954740557797871,0.8588528954011615,0.7788831250541279,
8.0,0.7658941950001876,0.8494409876609044,0.760768910475395,0.9082297012419109,0.8442297530198756,0.739448448274891,0.7547559160593417,0.867014805805728,0.772798401582858,0.8034389680831858,0.8641550567446321,0.7831920729264327,
7.920792079207921,0.7805647409605675,0.8560575099486908,0.7743376731455871,0.9123355889530508,0.8529758926097626,0.7575050652572305,0.7723935601554086,0.8773008173267443,0.7843610657923995,0.8145852306956403,0.8714939345147206,0.7962332834954838,
7.8431372549019605,0.8014739325663952,0.8632799654312022,0.7929728521636464,0.9135592941494923,0.8600665886520725,0.7782862638168865,0.786384123437642,0.8811815468279091,0.7995302002568492,0.8298545179734166,0.8791560653534842,0.807998266547357,
7.766990291262135,0.7950494814541931,0.8654520476013234,0.7917923250882443,0.9123838147141278,0.8638402944940505,0.7799026016126083,0.782906318837594,0.8818661346704687,0.8012429415134804,0.8261564471889433,0.8760393972396907,0.8082883356325931,
7.6923076923076925,0.7831766877899088,0.8572413965587518,0.777075294083827,0.9154160046692024,0.855445132261988,0.7577846689936273,0.770547324241972,0.8759633179007634,0.7862089494035315,0.8174779196835844,0.8726137815675223,0.797216783956869,
7.6190476190476195,0.7767751441541579,0.8532230888438075,0.7690108437121492,0.9128065333020836,0.8530228569655706,0.7496281950088336,0.7655175275050514,0.8746587285172989,0.7800996942097829,0.808592338445065,0.8696351901335984,0.7907063500679794,
7.547169811320755,0.7734223276585988,0.8546992232707628,0.7674630386053571,0.9123904798384435,0.8537041836475416,0.7422773895883031,0.7650954475789686,0.8766658364227432,0.7739454949247703,0.8107105069464583,0.8668081358954562,0.7884188763253567,
7.476635514018691,0.7798874244729721,0.8536890496705457,0.7705343567516649,0.9143722986741971,0.8498645011977107,0.7514375349440514,0.7678014541578986,0.8733073274528788,0.7786453777314527,0.8108020974485264,0.8706025188778711,0.7928091852446512,
7.4074074074074066,0.7798101056242132,0.8553764129923183,0.7762161401540816,0.9153735941024105,0.8561153169130719,0.7568491862116414,0.775345583159361,0.8799552096192716,0.7858448436795809,0.8182368631349719,0.8713416115756217,0.7985430168322254,
7.339449541284404,0.7936242592594299,0.864878107300905,0.7882333039596464,0.9170407585745827,0.8646767250520192,0.7674562809424358,0.7827906393659194,0.8849409070504114,0.7945931455910733,0.825208316331087,0.879828907955166,0.8091373272218669,
7.2727272727272725,0.798246759638722,0.868007526621179,0.7968699336014009,0.9198776338179748,0.8659502600558331,0.7761902472534781,0.7877118208104099,0.887601952854529,0.8003415275178525,0.8294572266215686,0.8787957878394673,0.8139291755093474,
7.207207207207207,0.7920531820990853,0.8649821690710761,0.7845652419408747,0.9177559343539319,0.8624491242568854,0.7654831395664541,0.7809276054057834,0.8849650267048023,0.7969012674018376,0.8236314550017013,0.8784564239525761,0.8087391864342808,
7.142857142857142,0.7863616034115701,0.8637361050939598,0.7810930681928346,0.9185588746925447,0.8601585647254809,0.7603202855022121,0.7770064934112128,0.8831692817009218,0.7916809887688033,0.8192972697477553,0.8754333852475239,0.8052396651808621,
7.079646017699115,0.7921249462464603,0.867509164198018,0.7838911236210564,0.9204926630908362,0.8610208969439713,0.7683863705572135,0.7782842439554382,0.8830212431658147,0.791207741000154,0.8242038455655311,0.8771034655393999,0.8056020668532287,
7.017543859649122,0.7993873009458096,0.8665075536394894,0.7951651819717173,0.9229485953247956,0.8639890223841674,0.7765163139442278,0.7894487115826312,0.886457664165776,0.8025808961999609,0.8271476036539199,0.8813185261780786,0.8124579437827263,
6.956521739130435,0.7925483599123667,0.8691853034707645,0.791446146314708,0.9203913696663616,0.8645107827489898,0.7686606661022067,0.7897560630983387,0.8866998815737024,0.7964121939327851,0.8279266490083281,0.8810299616882799,0.8100558019051142,
6.896551724137931,0.7939370055898682,0.8718009522876262,0.7908405984639115,0.9204429399941714,0.8674759483275919,0.7713097924447754,0.7905141985018034,0.8881963352774004,0.7999770771628457,0.8291438070387311,0.8813581045406256,0.8118347479538884,
6.837606837606838,0.7995316314016151,0.8742506760152996,0.7928562850969746,0.9219278853061705,0.867789180583234,0.7698134994961147,0.7884927138706633,0.8905370078992599,0.8009160522711141,0.8312360828856576,0.8833994745394148,0.8142006371776668,
6.779661016949152,0.7974486915488216,0.8679731349231555,0.7908865903815757,0.9242594799237693,0.8666725000419235,0.7760513463470469,0.7937297222992399,0.8906391490821896,0.8009732270261184,0.8317133578535594,0.8819999726787294,0.8134153076684154,
6.722689075630252,0.801431137330799,0.8716788196545711,0.7955670081146882,0.921752414246171,0.872309113762626,0.7770017146411136,0.7937926612173772,0.8903687886657338,0.802484798979956,0.8345574101403413,0.8888784822542378,0.8166036919403131,
6.666666666666667,0.8058963135346936,0.8744660521130524,0.8007348589843851,0.9255564840358231,0.8718750051141084,0.7803414722004852,0.7994236989420787,0.8946193161491283,0.8084859208425988,0.8359214394871284,0.8873240149955067,0.819218574548972,
6.6115702479338845,0.8091326108461552,0.8780801649560318,0.8039938514930044,0.9263223186394958,0.8736058634712868,0.7880771779854028,0.798906166363427,0.8930706803475813,0.8088636580136459,0.8381437052039894,0.8887519379335264,0.8242748929815119,
6.557377049180328,0.8111407308855422,0.8790226916279199,0.8064025804922631,0.9275408576570467,0.8758374417485066,0.7903874331935108,0.8040720260294932,0.8986824082432359,0.8105281801923507,0.8397794493354752,0.8902473977458962,0.8241580500535046,
6.504065040650407,0.8173391838099758,0.8820706125766217,0.8127583492722182,0.9284945116764209,0.8814034821002349,0.7998991572301032,0.8110297225964462,0.8992182548444643,0.822968528362146,0.8491139907358412,0.8925492663309006,0.8325693065891047,
6.451612903225806,0.8260111102240073,0.8847378661893498,0.8210108319158361,0.9306080367770766,0.883720620488885,0.8072556437476919,0.8177113474202434,0.9044250827303835,0.8251055198387808,0.8497733816339731,0.897725468262823,0.8382387345695277,
6.4,0.83327733155646,0.8934160486230411,0.8308811363247894,0.9336081502614422,0.8897578917321004,0.8170636597894901,0.8247286333821101,0.9042833276996995,0.8339973637365519,0.8597826665860507,0.8997112112388912,0.8452249849336199,
6.349206349206349,0.842697203053864,0.8955335061430697,0.8376184106197386,0.9320828010463165,0.8943089526212236,0.8279246616888113,0.8374374405185306,0.9089524411112784,0.8470181277622123,0.8710642960372492,0.9070791119903507,0.8534469719806029,
6.299212598425196,0.8619214726704866,0.9017056104422284,0.8506890486747228,0.940319388947347,0.895511885234013,0.8435973163875752,0.8446822736766613,0.9119328469910641,0.8523546771098978,0.8774797392628036,0.9117246433045397,0.8650686714878203,
6.25,0.854208347166637,0.9039329436653197,0.8551808693975548,0.9420852985050648,0.911363285239901,0.8600590971728376,0.8654127764458676,0.924867862992529,0.8604776293812686,0.8877889577470569,0.9177432797134797,0.8739877423669694,
6.2015503875969,0.8525908373614695,0.9047780621556217,0.8558823390144248,0.9399261733148551,0.9049337948982092,0.8407581591459101,0.8475648327741793,0.9137371894289448,0.8564062351855621,0.8804285157031909,0.915125958795239,0.868042315698685,
6.153846153846154,0.8458286608711518,0.9006954768295375,0.845693825933037,0.9383543639033637,0.8975131952952261,0.8347051916762929,0.8399615765434453,0.915276411934438,0.849934670395959,0.8707611171866088,0.9082757721126441,0.8549807014801403,
6.106870229007633,0.8401906038522998,0.8950624802734787,0.8362354145902748,0.9362679173355921,0.8941290169989411,0.8242074423129345,0.8304956989763325,0.9099314978096615,0.8428209690649252,0.8638073362511727,0.9081760667386805,0.8547136785749505,
6.0606060606060606,0.8364701897022823,0.8922060008997291,0.8319063681413698,0.9350653778251559,0.8901693250610294,0.8163893161227471,0.8277523145672573,0.9090125363587133,0.8393588852150695,0.8610544301816728,0.9065139623943352,0.8486288273185048,
6.015037593984962,0.8350940900246248,0.8914447790267945,0.82663417684723,0.9364211215177506,0.8926502772589858,0.8146327344091413,0.8260414471846101,0.9066511201096142,0.8331668494515331,0.864314615079596,0.9025430220109972,0.8462575253273654,
5.970149253731343,0.8285837282575897,0.8917121007526656,0.8271396872742449,0.9334234794395599,0.8887815876935796,0.8094057816295832,0.8242184695734476,0.9057868008192272,0.8324859057839277,0.856497142259323,0.9024810278091111,0.8447597781367653,
5.9259259259259265,0.8314465140652509,0.8917947094104297,0.8287112417386637,0.9343331542767196,0.887901769822876,0.8098396731591357,0.8213886913657893,0.9063459973842788,0.8312689502060373,0.8582117708406972,0.9015194243409903,0.8449719418331997,
5.88235294117647,0.8302650640504864,0.8933122406912852,0.8263741098032528,0.9343824214811178,0.8901785867799421,0.8071473830991697,0.8254379539496873,0.9077656816982315,0.8280458238945898,0.8559477845730123,0.9020823716840172,0.839950544504438,
5.839416058394161,0.8253950896622527,0.8905898661644507,0.8225647949835052,0.935051910965622,0.8855809839709843,0.8065310035720419,0.8209928027506292,0.9068816801575097,0.8302071603555716,0.8551019724497627,0.89964646286562,0.84080222260597,
5.797101449275362,0.8287905480559624,0.8921429851302243,0.8250914377852632,0.9377362557635595,0.8910253225985046,0.8092648219753998,0.8271804017798465,0.9098539365249374,0.8306522594449915,0.858634814042116,0.9035755231375591,0.8437237734169298,
5.755395683453238,0.8311456920535676,0.8927819776599588,0.8269199024992994,0.9367931179816938,0.8899275159516856,0.8114091328673811,0.8262177845396201,0.9088098738899559,0.8339093920367304,0.8578587607978627,0.9062915473769628,0.8393856060710762,
5.714285714285714,0.8318377028927991,0.8923635207131201,0.8300928794207935,0.9353701718141747,0.8930981395274038,0.8120503500355167,0.8277658863382389,0.9095946962783719,0.8328339823133639,0.8576454217713153,0.9063639734432368,0.8453231634340201,
5.673758865248227,0.8316715915507397,0.895603996749139,0.83086544071315,0.9394208028317441,0.8945454305426295,0.8137479038541411,0.8270811547609876,0.9103753151168437,0.832775730324725,0.860645657402632,0.9010491421638317,0.8464439837096053,
5.633802816901409,0.8349122755400912,0.8983576825042652,0.8346984689580382,0.9367871291565761,0.8975086073262066,0.8152925869296687,0.8339911828330583,0.9124594003982528,0.8378208923930437,0.8646906283846113,0.9073988596733341,0.850756647978143,
5.594405594405594,0.8391611431003206,0.895766123071524,0.836695794101662,0.937202028374396,0.8977090726267087,0.8201472319609603,0.8301542009859867,0.9104772784137931,0.8393839914329307,0.8660891832425869,0.9095302632288209,0.8519422535169346,
5.555555555555555,0.8398834946213551,0.8979463877654457,0.8360145492901229,0.9401828477937045,0.8950477474355643,0.8189823706947038,0.8290794939933337,0.9124132503465862,0.8449973842107152,0.868089791556839,0.9095511354574679,0.8513389395938504,
5.517241379310345,0.8431123069406634,0.900899783332472,0.8435276926423421,0.9424694960562784,0.896805982063141,0.8246903865175996,0.8388118977352199,0.9142350858259742,0.8468119522645231,0.8693583217840948,0.9120477252715394,0.8579366486145019,
5.47945205479452,0.8454609734236566,0.9010934760018889,0.8421450725947016,0.9413930380881097,0.898442911038509,0.8332454681866922,0.8445635673036747,0.9149486219287536,0.848833896217123,0.8699032373253344,0.9117312857992519,0.8562194199231435,
5.442176870748299,0.8437443769161742,0.8995012326447482,0.8401580841927863,0.9421689693902363,0.8996191696786626,0.8263348927511841,0.8363323269393198,0.9154623073217827,0.8452894776978037,0.8715015851387049,0.909622783170989,0.8579143138903739,
5.405405405405405,0.8421653175742939,0.8987917011506942,0.8418010286374246,0.9411752367549652,0.8988928657681361,0.8244835184382532,0.8377009392882132,0.9147548928159095,0.8436147220741053,0.8676539142514174,0.9103572664617298,0.8567502127545069,
5.369127516778524,0.8418220619237624,0.9047614138914588,0.8381638333670532,0.9426444160887598,0.8990655648705014,0.8208464854238181,0.8365879570726562,0.9165681366087579,0.8439717314150221,0.8675348660772125,0.9123344831567864,0.8556982886617348,
5.333333333333334,0.8447079882598847,0.902916371757314,0.8433882661736154,0.9426028341525419,0.898636878540774,0.8264422315405464,0.8400830275705161,0.9148452563044829,0.8511033850496204,0.8728504210550925,0.9111330621880686,0.8601775729173718,
5.298013245033113,0.849710438323438,0.907156962024995,0.844869020203831,0.9447824778787461,0.9050186060966722,0.8312183074826474,0.8457082971541284,0.9203134020251258,0.8495351522127428,0.8745319209916491,0.915415184085741,0.8605158841290496,
5.263157894736842,0.8547454300698191,0.9036329214865373,0.8480970001510643,0.9448144630106847,0.9045121415386869,0.8377280849023615,0.8471204817744128,0.9194909617492162,0.8508309735380173,0.8774630270033303,0.9170809861338838,0.8637573828072205,
5.228758169934641,0.8566507947635753,0.908079248829239,0.8547371551477936,0.9453495771632917,0.9064160271892567,0.8401361700593334,0.8522485205836187,0.9218943932783636,0.8621350733919202,0.8834189273449556,0.916142289522851,0.8677578871479269,
5.194805194805195,0.86245898478572,0.906753511543709,0.8553198680505912,0.9464354163293073,0.9095692696863821,0.8450998732050651,0.8562197223876905,0.9257065814752157,0.8614921591492365,0.881122471439681,0.9176213042200541,0.8705576293941969,
5.161290322580645,0.8580246379438666,0.9096808130643869,0.8525314144621916,0.946864195686244,0.907565599550362,0.8379158164506368,0.8494523340207589,0.9228928171851477,0.8599426324632311,0.8818505789797737,0.9161090060721638,0.8715407316561938,
5.128205128205128,0.85739633203153,0.9091747233205668,0.8539553219503723,0.9456280345384851,0.9058649611829008,0.8379308315367734,0.848694782034999,0.9180388426742251,0.8585621744355869,0.8794290059244522,0.9177334453086281,0.8684272753293358,
5.095541401273886,0.8551489397248105,0.906622956600579,0.8494223637549815,0.9462726351026979,0.9082160160944183,0.8385976751435343,0.8494318718168214,0.9218510950330292,0.8590836756581087,0.8775285323614405,0.9175532819286409,0.8680962057204008,
5.063291139240507,0.852715798816461,0.9098361978448615,0.8510133214057962,0.9482238111644374,0.9092097811021926,0.8340604407813782,0.851758318452412,0.9213701915021085,0.8596709511961574,0.879269891344083,0.9200620629974692,0.8683247750019334,
5.031446540880504,0.8588564726950348,0.9111878790649871,0.8545044299239001,0.9473663344549763,0.9117481493928444,0.8410899158163706,0.852983421624813,0.921963826238288,0.8590838987375993,0.8819326279617754,0.9184857974387574,0.8695016147865652,
5.0,0.8623911989733624,0.9153296928558418,0.8570637314634434,0.9493665355106793,0.912017115049882,0.8430522369646298,0.8576893420795709,0.9265482187027058,0.8635237700729587,0.8833471595058149,0.9246738704286007,0.8724258450858182,
4.968944099378882,0.8620022680972085,0.9126107379739018,0.852185142485482,0.9488526309948319,0.910526228294136,0.8470046263743592,0.8576170665314807,0.9241812894368462,0.861449416800922,0.8841877734668466,0.9220364914443252,0.8646543506330899,
4.938271604938271,0.8566625449038394,0.9126007524399465,0.8563282030264305,0.9483690995981869,0.9112563927267652,0.846884937413743,0.8554781551492193,0.9234542594906876,0.8620228184941847,0.8825081263701922,0.9234115138163381,0.8734723611382518,
4.9079754601226995,0.8625367480656511,0.913242337008636,0.856810355515609,0.9489738547867245,0.9096679516562043,0.8481053232491987,0.860200737059259,0.9281523172708285,0.8647582081628962,0.888333579246117,0.9238892321803592,0.8729255344184711,
4.878048780487805,0.8594281488113917,0.9177682106230625,0.862330317195895,0.9498868424680661,0.9138832168912473,0.8439210630146317,0.8582085981640617,0.9279507782054447,0.8638241855135186,0.886909857600441,0.9251676341019293,0.8745077629956447,
4.848484848484849,0.863321627589281,0.9187366631396333,0.8643131288584223,0.9503066865103806,0.9145058506673716,0.8456122825809426,0.8614988033109675,0.9267651936371689,0.8694925851045934,0.8888510508042898,0.9236404255409268,0.8763324961705748,
4.819277108433735,0.8662224842062242,0.9185773433361847,0.8601510180994464,0.9518946233408828,0.9166690486875223,0.8500156086289195,0.8584990875548338,0.9302781157993778,0.8684625503028867,0.8888464247291279,0.9251149640787277,0.8785276469215189,
4.790419161676647,0.8695795343042716,0.9147366631061951,0.8626449693429391,0.9510933101058373,0.9132718078010061,0.8543637260826774,0.8606707160375372,0.9277016999083023,0.8723680007005756,0.890003494681722,0.9268790200612658,0.8822410431971895,
4.761904761904762,0.8691909426174397,0.9179288361329636,0.8703773385684151,0.9518606839592868,0.9173860392862271,0.8550367502138404,0.8651824445825053,0.9297879803556229,0.8732075509774176,0.8925523123764513,0.9234899155179069,0.8827009726873101,
4.733727810650888,0.8752070851764698,0.921262393759745,0.8709784331014301,0.9509373173034295,0.9185305977701145,0.8572186944428407,0.8694256466879169,0.9323645415631613,0.8752411033865442,0.8950791552205082,0.9280748351563365,0.8855311957787875,
4.705882352941177,0.8775009698327408,0.9261103650926762,0.8744592134402208,0.9543162342990027,0.9214923313013924,0.8666512210249678,0.8712728695406368,0.932652299667535,0.87735674759085,0.9021039931344338,0.9275311134205662,0.8894449468374308,
4.678362573099415,0.8765841236750077,0.9252855397169356,0.8808990996751679,0.9536185204930757,0.9203829846410401,0.8685505911403097,0.8774786814699141,0.93170492490161,0.880807980447168,0.8999488043657456,0.9297687148723649,0.8902287882330501,
4.651162790697675,0.8797669807935288,0.9233382212209112,0.8764976439843829,0.9540681123711134,0.924401570884866,0.8648367158236674,0.8768935277478996,0.9367868978064785,0.8827948247455817,0.9002904020260464,0.9287486507358366,0.8922312884146307,
4.624277456647398,0.875943466253272,0.9201128040599583,0.8750218310783969,0.9555433821982346,0.9227491892066388,0.8659011615023349,0.8739152061084078,0.9346695238705127,0.8792283288771057,0.8981357119394524,0.9299761134596771,0.8831480535075024,
4.597701149425287,0.8752488074538863,0.9206531250942466,0.8742490220625101,0.9532862839510076,0.9190454534493959,0.8654711737230194,0.8735752599401486,0.931701146073572,0.8807930761116692,0.8990131656684631,0.9286695455558027,0.8867276970955026,
4.571428571428571,0.8753007701192964,0.9215101602261231,0.8729866085285618,0.9524444985113604,0.9193845814114706,0.8576621032314039,0.8695780305519403,0.9334378681265747,0.8761560223720779,0.8958247970725471,0.9266409098732036,0.8842608662372129,
4.545454545454546,0.8744943559003432,0.9220221132098129,0.8707319193891158,0.9535060395965137,0.9195034199166172,0.8568283116311223,0.8688630397658913,0.9315334332721733,0.8736151803945159,0.8956784413903554,0.9306226307626898,0.8851667433228795,
4.519774011299435,0.8750030714870984,0.9204314000722553,0.8695974695240799,0.9538448380056408,0.9218053974447249,0.8561784427488248,0.8727701542564517,0.9301570291573297,0.8740761842239863,0.8977559795938549,0.9318570444292867,0.8872901191392252,
4.49438202247191,0.8726168271504012,0.922306982299542,0.8734975712465135,0.9555898627552115,0.9202436474839992,0.8603082795380078,0.8724889563249286,0.9354975530278822,0.8780275671325886,0.896697528393266,0.931036544592852,0.8894618363936719,
4.4692737430167595,0.8776502916364761,0.9239917834219593,0.8752486690419223,0.9551810514699436,0.9232807177199525,0.862100689364763,0.8720795812445676,0.9349574632470469,0.8748436586085455,0.8974120859992457,0.930757918141875,0.887393097372231,
4.444444444444445,0.8769871603978722,0.9250231547611447,0.8756193765902902,0.9555054015636855,0.9216972694462943,0.8608495463267499,0.8722565067046257,0.9335539145642479,0.878719209677539,0.895073069682013,0.9298344241715389,0.8871659913463825,
4.41988950276243,0.8730399200137144,0.9257868277758073,0.8735246491679073,0.955440487000457,0.92202358091534,0.8604661586354198,0.869833224244354,0.935898999129804,0.8793011380680615,0.8970717159250654,0.9307386751729236,0.8920658561212088,
4.395604395604396,0.8773959455577964,0.9248804749595728,0.8758027603681182,0.9557069052768764,0.9185083092305848,0.8601105664485855,0.8755311774876189,0.9348762044520761,0.8793233923448968,0.9001228794012379,0.9293183261858783,0.8891296588155359,
4.371584699453552,0.8809997183114672,0.9243914036576617,0.8792868593201425,0.9580726918952908,0.9239324470162036,0.8650922388008192,0.8789309205226882,0.9382956508656474,0.8857820282428844,0.9006579021790907,0.9318066871936873,0.8923272526647544,
4.3478260869565215,0.8811134203596452,0.9243057695839719,0.8808204387758896,0.9572433674113959,0.9241973754977831,0.866976147779188,0.8775198152235796,0.9377550228252135,0.8817320535178804,0.9006204505363142,0.933315448178481,0.8928334733304087,
4.324324324324325,0.8812611956374248,0.9268254103081882,0.8814868320230577,0.9564829749098643,0.9239841266758582,0.8648999344107774,0.8794922712400937,0.9351670829298782,0.8800042326685289,0.9017352858840294,0.933206149937326,0.8931133154406663,
4.301075268817205,0.8795250450876944,0.929334555831634,0.877413684754309,0.9575773388474386,0.9226305031737634,0.8661882912583356,0.8785736322690465,0.9371990794929529,0.8816873514649896,0.8991286205391248,0.9325531926399272,0.8939167417107251,
4.27807486631016,0.8801488478666973,0.9281617118453714,0.8827754693152874,0.9588372665418257,0.924713433353077,0.8695707489334367,0.878590459150808,0.9367120677715334,0.8862788187227147,0.9038930999130109,0.9330080889928724,0.8939244016452437,
4.25531914893617,0.8853085697063043,0.9286310712255869,0.8821169060464054,0.9569590366562298,0.929298084143226,0.8712558917036181,0.8846325190065495,0.9393092424051809,0.8881142192671397,0.9054053734962093,0.9356562103178191,0.8989033655835895,
4.232804232804233,0.8861960054639267,0.9289499514451827,0.8799343289002785,0.9592970334636812,0.9273673680748227,0.8714743487429053,0.8800128340916493,0.9413909908596807,0.8839713787282136,0.9053758210052498,0.9346446774502534,0.8964602301109763,
4.2105263157894735,0.8873249753246643,0.9296290678309805,0.8846134958547531,0.9595438990972321,0.9292572860430519,0.8707743493444852,0.8825315568474522,0.941174899525688,0.889836626291226,0.90706249530838,0.938912013209787,0.8987580152175073,
4.18848167539267,0.8886367548281083,0.9314896813221633,0.8856498408730733,0.9608995213348699,0.9301020791425055,0.8761689273663593,0.8847330654590032,0.941497721945601,0.8926520094015723,0.9071308581199182,0.9388065070302245,0.898371565602923,
4.166666666666666,0.8871555531905208,0.9343830303232527,0.8827224876887797,0.9607056001506287,0.9330123013678883,0.8785669524788827,0.8919053887788293,0.9461129295227598,0.8938823790860471,0.9117636523012491,0.9406289380884874,0.9019282281364763,
4.145077720207254,0.8919233368992001,0.9308325129303834,0.8902963681520454,0.9607034000165807,0.9310283805131773,0.8792882488343174,0.8895312614868389,0.9407574466049987,0.8945258425889099,0.9106450633603956,0.9392750151549932,0.9004205965566691,
4.123711340206185,0.8919580642916048,0.93145776029519,0.8903130314706439,0.9599576960818887,0.928163925383309,0.8740027931756875,0.8833326513532258,0.939094773770151,0.8933669946894218,0.9094289067789583,0.9382796234801402,0.9029559887530493,
4.102564102564102,0.8900210437770183,0.9315560463492891,0.8903490688104035,0.9601370240652003,0.9310092885362174,0.8758285580139715,0.8862196398341147,0.9423564471580461,0.895005192143103,0.9053988843666066,0.9359358934683623,0.8991467262907958,
4.081632653061225,0.8885264665073106,0.9301890670443572,0.8864367987819632,0.9605800755226976,0.9323393776682758,0.8769063586303745,0.8885174723616505,0.9424258621415494,0.891964484435622,0.911167601544598,0.9381460677031126,0.8999430328038522,
4.060913705583756,0.8920902871628423,0.9327356789172901,0.8877549211325667,0.9608063347357538,0.9325057449914802,0.8788940902496154,0.8882133090276637,0.9400837004508621,0.8944154119970602,0.9110242586920346,0.9413240058163088,0.900929914696992,
4.040404040404041,0.8941031516873243,0.9314483683262962,0.8861534679923638,0.9600205389860998,0.9333015533667676,0.8827284034484519,0.8891037775020781,0.9441988975256407,0.8950159565232457,0.9119083636190095,0.9415462667048204,0.9022455445995834,
4.0201005025125625,0.8946336284278051,0.9351224926664653,0.8926198176490465,0.9625468861581999,0.9342029184822294,0.8804621696461662,0.8895251744160938,0.9432072213954276,0.8961421864042027,0.9108419700321062,0.9400200125893835,0.9017769190943911,
4.0,0.8961874236666347,0.9300611756901344,0.8904559234599797,0.9602866208893385,0.9327288603882877,0.8824472924257668,0.8927585782353468,0.9432478756435364,0.8982169094226605,0.9120262359177025,0.9396661065650138,0.9039145765547001,
3.9800995024875623,0.8913388070685598,0.9323358065710982,0.8894916458490325,0.9625358541857502,0.9338126198216166,0.8806149871528296,0.8930581357220885,0.9449867664441264,0.8931393422142371,0.9118362666928755,0.9380098799174348,0.9053730406983521,
3.9603960396039604,0.8926045216520739,0.9310476971157211,0.8943184764816345,0.9626307819021798,0.9351453704481396,0.8805982867893587,0.8915301138382549,0.9448001858526818,0.8966115945656293,0.9114137116209103,0.9429182219990426,0.9037481449831838,
3.9408866995073892,0.8951360605586915,0.9368015213666693,0.8971377348282746,0.964053025702455,0.9342239189422322,0.880447458968162,0.8924596198386089,0.9472141454744246,0.8962404752931039,0.9128003927601751,0.9412170540124138,0.9043849348161261,
3.9215686274509802,0.8994299815610284,0.9345011787903466,0.8940190352254119,0.9615476548095017,0.9350501029436504,0.8824309224439015,0.8937639126959658,0.9464327328033443,0.8978045957519948,0.9174421011493028,0.942697684557531,0.90553062457407,
3.902439024390244,0.8956131047216926,0.9363642008415669,0.900163348746747,0.9632414087242193,0.9370380126915273,0.8843524476125443,0.8952267712305291,0.9460543445173382,0.8998680667286538,0.9162888370161726,0.9420952972991136,0.9090272978104494,
3.8834951456310676,0.8994510237611496,0.9346240906025085,0.8991840114662483,0.9632451927057445,0.9369567286211818,0.8874566449042792,0.8972402397744823,0.9468815445713267,0.9056467789645345,0.9166175157065282,0.942927461499133,0.9074042428793728,
3.864734299516908,0.8996631682593236,0.9367723327958895,0.8981670756316215,0.9632773911563267,0.9380322520720402,0.8860338864510506,0.8946781149673892,0.9470446920417399,0.901342893221278,0.9155543084913718,0.9422565107728142,0.9075554320678705,
3.8461538461538463,0.8997778139226023,0.9355532518576188,0.8981829165595542,0.9639613907054557,0.9373822811423896,0.8874679875688772,0.8958234865730579,0.9460417796492975,0.9009214751556603,0.9168515921177441,0.9424542435187608,0.9074868121071223,
3.827751196172249,0.9010194018664642,0.9377437561270879,0.8987034777802893,0.9668539086055981,0.9371636338055079,0.8905066547795614,0.9001247979761244,0.9496305869021171,0.9013584003190117,0.9198148054617576,0.9446534761053975,0.9129255880369391,
3.8095238095238098,0.9011394893336233,0.9402882589611727,0.8990462662098309,0.9654779020960038,0.9396906587484314,0.8875592532247811,0.9008265486007848,0.950084240995532,0.9049033817548382,0.9183972329226159,0.9476409121176943,0.9116630568845178,
3.7914691943127963,0.9009875379331622,0.9416275750494423,0.8995722165657819,0.9663059268264,0.9399522001693307,0.8869762274040308,0.901434218502168,0.9486861758472027,0.9044920206849542,0.9188593080739483,0.9479354415356819,0.9112252931346434,
3.7735849056603774,0.9037040403103206,0.9401212779362718,0.9007939802228444,0.9670738832478007,0.9401931515195499,0.8896206337176779,0.8993242879850417,0.9498128966233363,0.904021317574658,0.9206585770171699,0.9455364289561102,0.9124879355067143,
3.755868544600939,0.9043017919864482,0.9401561952373961,0.9043689077476684,0.9645391014574596,0.9396347147555353,0.89434470561339,0.9016029103362935,0.9502005489992107,0.9032073720204715,0.9218363684025438,0.9459105421577235,0.913791063475976,
3.7383177570093453,0.900628351863153,0.9409459908600745,0.9066591631408656,0.9662854436924719,0.9417427232256387,0.892770710212387,0.900914587760055,0.9508851174658964,0.9049465558456858,0.9218133937601066,0.9479963712714335,0.9132255682855712,
3.7209302325581395,0.904313220638229,0.9406807142211715,0.9024152511568435,0.9668650492842695,0.9417549365759382,0.8934668605101003,0.9033717185274549,0.9502958782604808,0.9071839439687357,0.9236939980533214,0.9476756668715176,0.9161954206841518,
3.7037037037037033,0.9043430926750603,0.9425541358202794,0.9043409646905348,0.9673313049760472,0.9418597992282619,0.8947462095572315,0.9051228098671328,0.9508917131358658,0.9094744137937372,0.9218542748727376,0.9506432227017634,0.9144968181820592,
3.686635944700461,0.9055275018211942,0.93944095785715,0.9039953379149815,0.9663672153620628,0.9410695506649265,0.895377073367847,0.9024674292173043,0.9511911862040066,0.9084642287478711,0.9210699678371346,0.9491146661378764,0.9147336626878368,
3.669724770642202,0.9052415459220015,0.9425529068701413,0.9057596384186867,0.9658563022706874,0.9416232999339001,0.8932852118877266,0.9014950975249804,0.9490602651993767,0.9084302386018802,0.9223598383726421,0.9489457858052917,0.9146687494063455,
3.65296803652968,0.9043156694004015,0.944275015411428,0.9064644171473569,0.9674238991175559,0.9422023145822987,0.8927202248538046,0.9087978531075536,0.951371049198411,0.9086036966021341,0.9228979590631581,0.9495871444632131,0.9142125815692929,
3.6363636363636362,0.9069987998031562,0.9411980771048596,0.9107618306020694,0.9684754099659726,0.9424935091641916,0.8952270495429872,0.9053679499857974,0.953244821627868,0.9098766491053348,0.9260527397688104,0.9515743778089818,0.9177705598555991,
3.619909502262444,0.9036407872962703,0.942264734179137,0.9081547523409648,0.9682097519626541,0.9427037299887691,0.896882184028258,0.9081390602392957,0.95089028603607,0.911495345720299,0.9232626712305254,0.9501726252656056,0.9201722247290421,
3.6036036036036037,0.9102424221665089,0.9446655874991728,0.9073343535489095,0.9686211371180032,0.9423161845651256,0.8984480848234614,0.9080636954537877,0.9531740926049956,0.910952599258229,0.9266118136475533,0.9514944717053427,0.9215161073531866,
3.587443946188341,0.910776280811867,0.9459684720009423,0.9078580293379485,0.9673335859636989,0.94396018837576,0.8987643630281247,0.9101588632095111,0.9543750656670883,0.9127244400954092,0.924669694878151,0.953934003455278,0.9208051026720491,
3.571428571428571,0.9115213103878937,0.944773025950796,0.9125654760185667,0.9697830398911191,0.9446286766336249,0.8981829015002377,0.9067678947811955,0.9530868381724281,0.912724062065426,0.9269449956936645,0.9502501212446286,0.9190541051808888,
3.5555555555555554,0.9106804318092752,0.9465635526879601,0.909797493992843,0.969348533328865,0.9449605651716844,0.9011350501501747,0.9110427732191119,0.9533255979690686,0.914427274778025,0.9268403354976523,0.9517942418913113,0.9206106817503212,
3.5398230088495577,0.9140822675964317,0.9454402714650896,0.9125570333196149,0.9695143675279777,0.9454179453273466,0.9037105035358253,0.9098011757529517,0.9539714374190187,0.916069424217777,0.9282234721389213,0.9514562154648507,0.9207185399282182,
3.524229074889868,0.9128460625180383,0.9470460445008444,0.913138133396675,0.9707430712284649,0.9458887236740648,0.9030819086177859,0.9140658834915942,0.9546773743540553,0.9173534395531725,0.929696280568901,0.9526869901695247,0.9240634506275283,
3.508771929824561,0.9139912414504734,0.9475477396825628,0.9109847445983563,0.97099332203395,0.9484121833820677,0.9038359103279054,0.9126599862298078,0.9589423412948351,0.9184110041419926,0.9314582055427767,0.9516027239296667,0.923439986586629,
3.4934497816593884,0.9142717456382875,0.9482514927771466,0.9113562377775507,0.9709908454009993,0.9465041772083314,0.90305952120761,0.9112298772700045,0.9562935938975078,0.9161878954803793,0.930384079530405,0.9519497045869069,0.9225234996995403,
3.4782608695652173,0.9148795607915453,0.9493784875472608,0.9119242458136915,0.97035722029413,0.9469433602885571,0.9028929667610919,0.9115004339358928,0.9564353773010613,0.9179567440339012,0.9311800739611532,0.9527473159974792,0.9220023725410569,
3.463203463203463,0.9167706547066158,0.9482643630029951,0.9151751056285128,0.9704909899650044,0.9472763054444412,0.9015104599999907,0.916040689085244,0.9552285336172338,0.9196143132718468,0.9303080486850429,0.953101308066399,0.9230964914477228,
3.4482758620689653,0.9166893892271338,0.9488634670657943,0.9145887750915692,0.972173132900039,0.9498169165528018,0.9071529809148575,0.9137151281987373,0.9569940499434665,0.9223379610467672,0.9326704035331568,0.954400403846856,0.9245798736589708,
3.4334763948497855,0.9157070317712432,0.9493852470512301,0.9158968891034074,0.9725780242558174,0.9466743767074282,0.9078052386137332,0.9152359656048223,0.9551704143690127,0.9192723640306236,0.9308979711181401,0.9542369275022864,0.9229351136567301,
3.418803418803419,0.9183162435165834,0.9479908131519981,0.9147231757225485,0.9695235576823829,0.9491989555300392,0.9100302917851932,0.9167440159978275,0.9576450587764731,0.9172436920602953,0.9303736940565757,0.9531744571918972,0.9249612102327172,
3.404255319148936,0.9173847040658781,0.9500627602153264,0.9154137976709201,0.9725618831642292,0.9488213837654927,0.9074527580446309,0.9153984103519871,0.9554854676413916,0.9206291213890067,0.9330624154787529,0.956331364404699,0.9269901009736837,
3.389830508474576,0.9172208771044451,0.9502483010439278,0.9179651122939895,0.9708086727751665,0.9497490793327463,0.906709587857793,0.9136872656122625,0.9572024230846596,0.9189691779213921,0.9345016095776458,0.9553054213459766,0.9281676752560764,
3.375527426160337,0.9177181035251394,0.9510665444448421,0.9186524928553057,0.9718793414578629,0.9491454674832218,0.9082302974830816,0.9172394336219637,0.9570345730473551,0.9190678760825074,0.9335475310549252,0.9552285011137912,0.9278293147480376,
3.361344537815126,0.917084930378596,0.9522055583623352,0.9174607974057107,0.9705627232363186,0.948834626876472,0.9085101406784777,0.9186008357301172,0.9581142643377936,0.9175790046566934,0.9328499231531578,0.9537757217556693,0.9277779179973903,
3.3472803347280333,0.9184966946974772,0.9495050741441279,0.9213270369915847,0.9723066068370381,0.9500459256408744,0.9085794838809602,0.920109652473693,0.9597293518103198,0.9224601604493882,0.9356682270612388,0.9556468762971184,0.9286784506167116,
3.3333333333333335,0.9204167128691204,0.9512986939775309,0.9184814895615351,0.9717482929187937,0.9475705168259362,0.9106538094982181,0.9201906764350349,0.9575747983504556,0.9240083802314648,0.9341216952467885,0.9549642209828751,0.9308217774836867,
3.319502074688797,0.9187532604669827,0.9526042941445051,0.9183737896284405,0.9736613554467786,0.9529573131584866,0.910275484478412,0.9197698004606417,0.9596869979050888,0.9206648555558418,0.9361021282484898,0.957207138862971,0.9309148208586543,
3.3057851239669422,0.9225972949897848,0.9523198722657563,0.9194684400513702,0.9736152255886273,0.9499463546671416,0.91209152403218,0.922491727987271,0.9593637369885812,0.9234238663568084,0.9362292528931443,0.957684107257154,0.928391102665511,
3.292181069958848,0.9226811863631298,0.9535133616316684,0.9227350404319357,0.97185052530391,0.9524573401149165,0.9098960402911184,0.9196314083585811,0.9589402125046463,0.9242052355394023,0.9354731813856989,0.9557618115150008,0.9253717152353674,
3.278688524590164,0.9228602099335221,0.951453831143081,0.9223333804764898,0.9720082741472623,0.9522873425964032,0.9102717440725789,0.9198074111545459,0.9573587623847073,0.9246716335642061,0.9350732193526772,0.9583415989520951,0.9304082757851094,
3.2653061224489797,0.9236868327908753,0.9495685912771686,0.9211594198726073,0.9727190460108256,0.9511958963571661,0.9149067852795331,0.921707509048091,0.9591468985735772,0.9245773224557002,0.9349945978846367,0.9547617107320145,0.9290063783103495,
3.2520325203252036,0.9213233578258961,0.9517639494838741,0.9238030168971954,0.9718917407587667,0.9522485051720768,0.9123637092606823,0.9205122737004737,0.9582932730449746,0.9242201451748114,0.9363165626646202,0.9562741895344327,0.9284857545209,
3.2388663967611335,0.9217167060497602,0.952170323219008,0.9206990695191696,0.974093157443526,0.9536461358783817,0.9146314572820743,0.9214468532188133,0.9607271681488851,0.9284102207994497,0.9378660835244697,0.9583828432566884,0.9335259150233032,
3.225806451612903,0.9248728729465612,0.9525902840640078,0.9231773609993271,0.9738917115529091,0.9522602606533582,0.913684950048449,0.9233358287748854,0.9585425878246813,0.9270720925054022,0.9370793236537628,0.9611710668435617,0.9316975952394968,
3.2128514056224895,0.9228644576669973,0.9518525331138283,0.9250059752256593,0.9733482481542629,0.9521846122371934,0.9169170689115552,0.922456350907151,0.9594101695078959,0.9279837079579357,0.9382054808370239,0.9582895636793077,0.9321917952743718,
3.2,0.9233651701521717,0.9565100930238564,0.9231908967628956,0.973919468992425,0.9541853070210924,0.9151994212026561,0.9243077695821138,0.9627276448507114,0.9265605203784747,0.9387193626193551,0.9594441072848336,0.930195656387038,
3.187250996015936,0.9208957170974558,0.9557956901526059,0.9229538163663906,0.9724624088250929,0.9531834637839776,0.9117925415240662,0.9219619412796078,0.9610315107486315,0.9272890108116139,0.938458140466761,0.9595701409321462,0.9326500588823029,
3.1746031746031744,0.9234157911705712,0.9545134103939226,0.9227244247978766,0.9737529538923597,0.9537212265381945,0.9158458266973358,0.9249541715354651,0.9612625440725564,0.929668545146654,0.9372599162297914,0.9598487387291144,0.9341040940072974,
3.1620553359683794,0.923012320711488,0.9546941577061536,0.9240587613222867,0.97353405101967,0.9533509226493004,0.9178790565862587,0.9239678692547194,0.9619984574575144,0.9272719350571356,0.9403899905140746,0.9611867079697178,0.9334511710718358,
3.149606299212598,0.9254185354524471,0.9581179000573267,0.9257515987129099,0.9739100809997454,0.9557002353375016,0.9154949036174559,0.9265796636563522,0.9610716119270424,0.9272329175194325,0.9376291141223385,0.960074492518463,0.9346218195639444,
3.1372549019607843,0.9261332720959385,0.9587029220669232,0.9278582978303728,0.9749203854665429,0.9560166365555042,0.9199299255840697,0.9280692616013139,0.9630152124967891,0.9296588720560971,0.9414010853230451,0.9623535430543074,0.9346987711930598,
3.125,0.9266222677517922,0.9553578016324576,0.9263695154714808,0.9752037422647674,0.9560309309801195,0.9181784234747512,0.9276304711697476,0.9624162327924909,0.9297035007230164,0.9405087953554504,0.9611823343767237,0.9324500862333188,
