,Airplane.bmp,BARBARA.bmp,BOAT.bmp,BRIDGE.bmp,Building.bmp,Cameraman.bmp,girl.bmp,LAX.bmp,LENNA.bmp,Lighthouse.bmp,Text.bmp,WOMAN.bmp,
100.0,0.00923265026819916,0.0108564965294022,0.011464978429735633,0.010077341964441511,0.012904592805241621,0.012454075394699005,0.008304052323722413,0.010822661195158977,0.0075701258394964815,0.010165579284648958,0.009467535588331317,0.0102214100306159,
88.88888888888889,0.047526896049988665,0.05555142558226579,0.04017021515815135,0.06744591388211325,0.049391024964862376,0.043880148474516524,0.02569651592557217,0.05712366813373544,0.03896302067863854,0.05992078239340874,0.07443817942033998,0.037190302043852416,
80.0,0.06914179325351943,0.07823471085291964,0.05429852272390346,0.09700711760383343,0.07016897572976859,0.06038688653394338,0.037127749549704284,0.0871344163801875,0.0555983779786124,0.08673138034501364,0.10724033676100901,0.05405286156884488,
72.72727272727273,0.08889237141306502,0.10589630331456847,0.07068677922308422,0.13142405960197476,0.09311006321293733,0.08118673199916501,0.049078594969306125,0.11356919562954017,0.07377947774960084,0.11508191785408248,0.14342671547830027,0.07062233463125556,
66.66666666666666,0.10387336770077014,0.12416034566802349,0.08307976116849458,0.15791799926960062,0.11307503137614333,0.0942679784269748,0.060440172451112904,0.13604593503188508,0.08960119644116968,0.13493267038842668,0.17188643497639772,0.0832891807311642,
61.53846153846154,0.11976810256501065,0.14285233576928338,0.0945202125933347,0.1770709481358821,0.12488975062523407,0.10679299815365331,0.06725665727285973,0.15645726365039866,0.09923067065354962,0.14912650831047497,0.18880303563711293,0.09269802473192719,
57.14285714285714,0.12980068807757006,0.15658291834059848,0.1061081259969339,0.1988789350125069,0.1388048871823074,0.11633228984269756,0.07504652424599621,0.17309540476596683,0.1086615405608822,0.16388834883746284,0.20810931095964655,0.10346848645867322,
53.333333333333336,0.14567526644896586,0.17859622455518814,0.11859766535650594,0.22846495086229002,0.160096228538929,0.12906563638414345,0.08790945485724529,0.19963539209397677,0.1255613102986317,0.18199314988353607,0.23080178489924488,0.12092399550525361,
50.0,0.16591171410368033,0.20416651200558272,0.1373233446199256,0.25863740819028885,0.18488181516055271,0.148576647784325,0.10506471621173229,0.22162902043927368,0.14497382677515094,0.20489371681187135,0.2545851747363318,0.14103763639462824,
47.05882352941176,0.17535473481672215,0.21331885723892235,0.14550423400895357,0.27157312638383246,0.19072513207973024,0.1552513862257185,0.11102770377526493,0.23629890898673606,0.1510464907045318,0.2176961884977797,0.27083684775299205,0.14699106059592154,
44.44444444444444,0.17988379595319753,0.22028889437113425,0.14774493273787379,0.2853430948072286,0.20084011969978963,0.15747304859796712,0.1117744867020042,0.2465683018543602,0.15437256700081103,0.22253882339276793,0.27949175350492744,0.1497827362258954,
42.10526315789473,0.19067373952412972,0.2367603079593378,0.16381239662518876,0.3035122688242714,0.21395108455030457,0.16991861161614488,0.12113981811451457,0.25933952158289575,0.16658859132545462,0.23780586719928828,0.29638285615701604,0.16313123087888784,
40.0,0.2023221055233195,0.2522577702320875,0.17070396899543308,0.3213754683971453,0.22718530885428867,0.18049458236441407,0.1307085437142334,0.2767737277508812,0.17800025177290085,0.2535993526066983,0.3114928782471311,0.17129270592451576,
38.095238095238095,0.21493283037919395,0.2714720389890327,0.1863177418152965,0.3461130563089201,0.2456062023614375,0.19227292442677904,0.14531135732950817,0.2962070432004429,0.18984853291691953,0.26388161995113796,0.33257354859454424,0.18706901241450372,
36.36363636363637,0.22629735283330374,0.2846590663265443,0.19482240837273726,0.36249161445212286,0.2631883380406413,0.20257069114949103,0.1551857855242489,0.31220638445810633,0.20311771845839197,0.2797682133767437,0.34873954415223624,0.1983515336501432,
34.78260869565217,0.23378516128788718,0.2989227527696143,0.20172216311030633,0.3763644637553394,0.2718503427450789,0.20713807228814202,0.16296790086716864,0.3204920984087757,0.21071269167828716,0.2905337484773514,0.35693873563810424,0.2055422196521829,
33.33333333333333,0.24240762143878214,0.3049322888956146,0.21223840225525692,0.38860277018710204,0.2804690043346882,0.21549879434860594,0.16792656213046706,0.33390157995877334,0.21658284738547365,0.2967127796835654,0.36806729735199556,0.21436993600310267,
32.0,0.2487490718177848,0.31462606122685066,0.2178238798053962,0.39855346054172297,0.2896996454553075,0.21945846696588117,0.17470029740585308,0.34331128659599924,0.22422097850823589,0.30479817846732216,0.3739847194817059,0.22158536510526222,
30.76923076923077,0.25490839051653263,0.3239136566127059,0.2235640803917725,0.4082626485281552,0.2966404775213753,0.22630706015340205,0.18058367507548093,0.35281667250466586,0.23170992737485066,0.31066820722806865,0.3847790947332277,0.22786450241132508,
29.629629629629626,0.26595575847853087,0.3367731959406529,0.2331688050589548,0.423857770293792,0.3134449931305914,0.2355284858429515,0.1922049324170191,0.3650134466345261,0.2407031750974153,0.3226117797166288,0.39874629359385017,0.23838302141592135,
28.57142857142857,0.2676219786370103,0.3435219053183758,0.23899838586459396,0.430274009882619,0.3202095520834244,0.23871273465486725,0.19472415390461048,0.3720122603268692,0.2452029280175322,0.3253669895346626,0.4005497115143587,0.24532081684387805,
27.586206896551722,0.27461451691685607,0.3505704034590741,0.24378662384920627,0.44077188611564505,0.327192881329163,0.24288409714157919,0.19950173743302568,0.38032962679459853,0.2511951883993738,0.33216035504140073,0.40692225030853557,0.2505066537971862,
26.666666666666668,0.2820737906501834,0.3597874226787874,0.2538026445853997,0.451426098912304,0.33950267305492793,0.2503829136456041,0.20864675530854054,0.38962191468743185,0.2597796943002881,0.3408091781667166,0.4207795605543381,0.258871239552999,
25.806451612903224,0.2867486129287322,0.36510964053590284,0.2578917232988632,0.45559213845430385,0.3408117622690199,0.2536837768055731,0.21151625689044362,0.3982997953190567,0.2632483647668592,0.3444087101811996,0.4234421823097565,0.2639984580913366,
25.0,0.37327424573560525,0.4481559924270816,0.3551040176814648,0.5310074604961939,0.43078259253380247,0.3492648654300961,0.3185676398477934,0.4752040925635406,0.3622513828692271,0.42917955435112437,0.5024120274383281,0.35894031240758445,
24.242424242424242,0.29742872311793894,0.3781986572895639,0.269543726399534,0.4762185220075609,0.3552484244991422,0.2653715686665663,0.22798780382201614,0.4119125260185822,0.27519669236418426,0.3585526620481227,0.4385460244054583,0.2750822705997179,
23.52941176470588,0.30567646900342066,0.39201046618550917,0.2789322921884803,0.486160239114188,0.3644483580088345,0.2747905611590547,0.23408470809910537,0.42423433068930405,0.2865071554948179,0.36583128991225555,0.4470664152124555,0.2843635940871327,
22.857142857142858,0.309460418709009,0.39638123617457716,0.2806862497721393,0.4941428853138827,0.3729478783144105,0.2742044012628894,0.2366961223749221,0.4275886887766822,0.289004407607598,0.37050372457298714,0.45151889283565905,0.28882355929423853,
22.22222222222222,0.32658636173790884,0.41702931252238096,0.29897765024137785,0.5109994864382887,0.39353568084815294,0.2925329225909858,0.25913390363749234,0.4482691635970481,0.306394672602864,0.388998944616408,0.47050107733391056,0.3112174932975772,
21.62162162162162,0.34899280208763994,0.44196355254113634,0.3267451431782715,0.5343662014944841,0.4188916184074534,0.31616330698769585,0.28553402773523595,0.47229159087239536,0.3342882631685346,0.41122674611325444,0.48976545403635136,0.33445066184567157,
21.052631578947366,0.3256457139885719,0.41371924812231586,0.2970605388187186,0.5124763892735859,0.39208137482584077,0.28927114942570625,0.2528834181404064,0.45089527277292907,0.30430210586425605,0.38407438406982947,0.4643329237423035,0.3065111372516348,
20.51282051282051,0.32704665812820344,0.41832300922651644,0.2978277076119695,0.5169616171949118,0.3965535583320814,0.2934182065965042,0.2565647469366304,0.4506224813156826,0.30642522385765,0.39008154398128636,0.472872609345687,0.30941247361664337,
20.0,0.336210551322111,0.4268096473828357,0.3069058929621285,0.5266855558474398,0.4028661879979891,0.29854670633119923,0.26692795295713223,0.46078756489481215,0.3152144441621805,0.39647876566835655,0.47837667243274173,0.317865991970957,
19.51219512195122,0.33878488730262374,0.4326588902186988,0.31154198201946437,0.5315287538675252,0.40882416519642867,0.3028346163044402,0.2680945649073518,0.46377894143661047,0.32139309695787127,0.4016774550305235,0.4843443417770786,0.3218168969206046,
19.047619047619047,0.3771609291673547,0.47563507038754305,0.35323585301562554,0.5661667893071076,0.45347388633478325,0.34247237947250936,0.3181081030659065,0.505493681620837,0.36155733876769786,0.43773440709330796,0.5206218812118961,0.36721448152612374,
18.6046511627907,0.45441523090827723,0.5337844347732676,0.43575346286725786,0.6172869886982615,0.5219686237181728,0.42592478803152956,0.4082518553428137,0.5620573140454119,0.4428713898411459,0.5102921206701643,0.5777180391776546,0.4495805078613449,
18.181818181818183,0.35347184473166743,0.4513288506018677,0.33020492904663873,0.5532509291642523,0.4307089766861853,0.3184196771652721,0.28600849159271285,0.4878604309842402,0.336825491086253,0.4181549517363671,0.5051864415447471,0.34054617140190274,
17.77777777777778,0.36155778159907787,0.4581049813766941,0.3349931162039279,0.5571512096687129,0.43552074618100156,0.323836012382338,0.2939117633552789,0.48941967201586056,0.34470461054148954,0.4242281245267506,0.5091969587647919,0.34895025340313235,
17.391304347826086,0.3613730143824557,0.46171156229716875,0.3387417070033886,0.5645354848418712,0.43967735733348157,0.3266285463997633,0.2966918600658607,0.49603822898498884,0.34324304200374095,0.42478261612587653,0.5087672413929156,0.35037206778557073,
17.02127659574468,0.3670431973803399,0.4674029770883246,0.34095238817799856,0.5684954809659255,0.44256472514347883,0.32999976997277053,0.30260050515383985,0.5033423262796818,0.3481695269911605,0.43195626035937473,0.5142682697489505,0.3518205339147877,
16.666666666666664,0.3784878900919703,0.48216722085166897,0.35369793404994704,0.5820841871400596,0.4620033108137925,0.342599439942821,0.3145297662571087,0.5121219214619938,0.36269381219514324,0.4421590673905794,0.5270472282976912,0.36849151155416004,
16.3265306122449,0.3769567840459878,0.47918109853043545,0.3526497163430582,0.5795308225492055,0.45776264886206436,0.33918676933705294,0.30909167810668847,0.5155641206410857,0.36337571654890366,0.4428733487728992,0.5256906372150936,0.3678692644667409,
16.0,0.4059270995428536,0.5070277048510838,0.38625102641535547,0.6083859555765248,0.4874963823051178,0.36727255394106606,0.3471900758516204,0.5381049495492851,0.3912802108707766,0.4690794488617838,0.5526247638322015,0.3975752715702809,
15.686274509803921,0.5553562197620445,0.6218095605530748,0.5334869906162819,0.6829744336410799,0.603882398758228,0.5233956258610808,0.509556053367158,0.6410349034629839,0.5409422159173389,0.59635797670837,0.6568982896372974,0.5458036855722557,
15.384615384615385,0.46616499777024956,0.5571761973454555,0.4431463469829665,0.6422807841733491,0.5381089036881351,0.42980949391601597,0.41430997463349556,0.5859390240037023,0.45262993491504283,0.5200984359978439,0.5984772307338578,0.45888659652890723,
15.09433962264151,0.3987005429246483,0.5058915364386519,0.3785571971623,0.6051371680594465,0.4834278575266563,0.36196913315302626,0.3373534808683547,0.5411507913199229,0.385314699574614,0.46426539975911657,0.5507370043274933,0.39188028496926103,
14.814814814814813,0.4019716854023778,0.5085569361663673,0.382295836494663,0.60936241776367,0.4875019654014949,0.36676524227155893,0.3433030549511353,0.5426162546099974,0.3884326314111384,0.46737847849725195,0.5517848612674835,0.396693850245997,
14.545454545454545,0.40329379710475,0.5126627486515336,0.38294310699149914,0.6111983202175875,0.4893738564844469,0.36830542898454527,0.3427809603303232,0.5457342324281692,0.39015760111095604,0.46887321819294164,0.5535379421327151,0.3973057449293596,
14.285714285714285,0.4124000683957698,0.5171844260301375,0.39055690184640507,0.6186466310592548,0.49794192414404653,0.3727468151500455,0.34988400359208793,0.5516213424233867,0.39789525824981525,0.4753097108776276,0.5629439756796819,0.4051447475700731,
14.035087719298245,0.4530175988717379,0.5505686275816672,0.4339869426772918,0.6453747613916723,0.5343030201176675,0.41990324167737547,0.40077810641151035,0.5819847290328823,0.44190434408306256,0.5127527345225366,0.5909286917189877,0.44791463416971217,
13.793103448275861,0.419876268222778,0.524464750792454,0.3974619857776381,0.6284092711375635,0.506272251403785,0.3809828381666105,0.3599353805042193,0.5594164160283985,0.40605356540102383,0.483776599084455,0.5717863957126066,0.4145223173584852,
13.559322033898304,0.42114487672034806,0.5296208751585028,0.4014114464981889,0.6367893068341198,0.5126696088582505,0.38675663125097137,0.3661788970778547,0.5648729706107201,0.41081203394428273,0.4857126879687452,0.57456768734663,0.4204322645494398,
13.333333333333334,0.42819142989775627,0.5386784050761718,0.41056460237959286,0.6394985759009115,0.5199982091717733,0.39498533081486276,0.3745622554320982,0.5708696013391948,0.41967188445718046,0.495281415788932,0.5817771551522518,0.4261163099568722,
13.114754098360656,0.4349812929622292,0.5452615331224746,0.41736068878662813,0.6435169236521827,0.5269178607270275,0.3966187941140561,0.3791518837438867,0.5790013026600307,0.4253124966402539,0.49905342456621105,0.5860297284328159,0.43310462977935477,
12.903225806451612,0.4521254356278436,0.5599502106921266,0.4349203072875107,0.6597456260370588,0.5463577421333652,0.4177238114609152,0.4025152444664109,0.5969870585555332,0.44408456260439255,0.5165256106805887,0.6017593698106908,0.45218710954240493,
12.698412698412698,0.5368172600589465,0.6213090965377004,0.5182866913373149,0.7016682560210805,0.6081538328583929,0.5063549080076692,0.4949137010611065,0.6485029875243259,0.524672998252535,0.5849228368222382,0.6586483107307611,0.5333280144191525,
12.5,0.6237190243069344,0.6914446556151261,0.6110358167553677,0.7489688844700572,0.6837864226299104,0.609604203048908,0.5948665416195293,0.7199765176639006,0.6226737237093679,0.6647183154918371,0.7190460139948593,0.6264943638510487,
12.307692307692308,0.5498293785505414,0.6327995378110081,0.5326057208944209,0.7119468735106277,0.6218743906261831,0.5217646592556375,0.508951427224006,0.6598973648150744,0.5424957322304048,0.6002242352010663,0.6656606515165181,0.548993960016092,
12.121212121212121,0.47549202786541045,0.5827186725901825,0.4577778259452637,0.676949839467967,0.5658559753091934,0.4379168983660776,0.4284269526840231,0.6131569638493829,0.4660327792300487,0.5389688038256497,0.6235160868095326,0.4769681838147693,
11.940298507462686,0.4596362627106863,0.5690060963319773,0.4409024581837998,0.6714160782392379,0.5540720000443577,0.4224013753150283,0.40708763811957827,0.6034268529720133,0.45300643140678243,0.5220164076687417,0.6064175559937846,0.4603546829696465,
11.76470588235294,0.4633728090271586,0.5715972240927101,0.44215170782212,0.6698690762478181,0.556149640778347,0.4217513947767581,0.41162132330047757,0.607190409122157,0.4532252577559409,0.5257426047796168,0.6128478726134636,0.4626464085960808,
11.594202898550725,0.4642982139322487,0.5766921582955045,0.4457497739456654,0.6742005035888841,0.5572265624742563,0.4235319684441487,0.411963904055694,0.6090251880440167,0.4558848312510613,0.5260698029717908,0.6142323388095738,0.4626979348089767,
11.428571428571429,0.47294665009524894,0.5854187618508131,0.45692251500498393,0.684246773665588,0.5627066908387823,0.4378622828750909,0.42280411697760617,0.6168186179246463,0.46581736839498006,0.5323551553269462,0.6238371465364612,0.47549788251157743,
11.267605633802818,0.4743682483384677,0.5834950425562878,0.45850762393444133,0.6882031189741615,0.567301224927087,0.43784572645995457,0.42818080549813775,0.6159091223111844,0.46711234866505197,0.5371388146912613,0.6209047418388575,0.4751375050110708,
11.11111111111111,0.48348988671798027,0.5909254489206744,0.46303859709734746,0.6876728879253722,0.5758972872031902,0.44592153685325736,0.43653832131538034,0.6223680727150049,0.4759126731122146,0.5468705649966026,0.630151670393996,0.48506685921085235,
10.95890410958904,0.555164731399946,0.6422819477005393,0.5351308869187658,0.7189690249381538,0.6263639274988684,0.5304189807182256,0.5126768096515951,0.6673537756666349,0.5454834012971013,0.6068226746149109,0.6740732334379396,0.550380365635333,
10.81081081081081,0.5096757337794706,0.6124446401003487,0.4943667247547539,0.7075646091944515,0.6000304409979025,0.4734063138645943,0.46595363690936353,0.6448235346799238,0.5036027320706004,0.5707508658838725,0.6487962524903593,0.513505967940512,
10.666666666666668,0.49022792466017207,0.5992039987417673,0.4708347085921199,0.695658576184751,0.5833755947349208,0.4521602154839549,0.43777079643384753,0.6290266618926093,0.4819829117831233,0.5509226774938581,0.6336262186643841,0.4894011222827822,
10.526315789473683,0.48757136035086407,0.602367599566031,0.4706537263875108,0.6965126486365694,0.5848978624901546,0.4514253665828499,0.4413021898799369,0.6338743275053542,0.47950688422362386,0.553271871540373,0.6361610532477759,0.49205156082776097,
10.38961038961039,0.5082581421547736,0.6108116165422455,0.4890072912931482,0.705350017737964,0.5952797040831604,0.4697755334633848,0.45727553760345857,0.6440019108196654,0.4977509265819831,0.5683319513269157,0.6484322915290314,0.5105624400677568,
10.256410256410255,0.49921203127776925,0.6087812240930844,0.4815918392081744,0.7056797828755106,0.5947923129601218,0.45699805205328226,0.45209159357759054,0.6405449507978735,0.49046456217053824,0.559003650038395,0.6455292297752288,0.5012256703775351,
10.126582278481013,0.49670960984073886,0.6087988500793484,0.4828136801694828,0.7059585794217734,0.5971842020465009,0.4618929229984695,0.45321335686227404,0.6429464473032523,0.4925245548412921,0.5603536348141772,0.6448870896714186,0.505304668219673,
10.0,0.5060418046818206,0.6168915787867232,0.4911348403104959,0.7135646292327779,0.6032027383089711,0.46894008145287436,0.46270409773482957,0.6469175369871053,0.5009782914051012,0.5689672153934674,0.6512453752030198,0.5116341876023044,
9.876543209876543,0.5138427022021052,0.62350033039731,0.4977771703388343,0.7222842509039927,0.6092488414171257,0.4784156479741594,0.46915432892783204,0.6548369888117521,0.5044989631679524,0.572925568229132,0.6583438164364942,0.5174515685554696,
9.75609756097561,0.5294721572932549,0.635584881857551,0.5142345030535918,0.7277124714370535,0.6224460773351306,0.49336171947172563,0.49112749712190856,0.6673870631566782,0.5237022572891722,0.5885253498155111,0.6689064875803659,0.5327150405697999,
9.63855421686747,0.5729783725922178,0.6693369073155905,0.5616103499586832,0.7479966246712987,0.6548466145157502,0.5420896737884913,0.5365083703345459,0.6933778678139042,0.568016232187517,0.62958629059452,0.6966067872410293,0.5806845776571112,
9.523809523809524,0.6289283510020818,0.7045903941894611,0.6141499316940197,0.77410106677731,0.6964507828653823,0.6037350381035563,0.5981045796808494,0.7299658054416067,0.6212032904675142,0.6754047058866331,0.7337821672461369,0.6321556275944942,
9.411764705882353,0.6908829705294326,0.7481418021553959,0.6725260294618899,0.7995799981237954,0.7373293851921334,0.6657986625331999,0.6586058278789532,0.7653509662117831,0.6807276237665619,0.7234016561284419,0.7689250325460467,0.6876103447185262,
9.30232558139535,0.672107856870755,0.7362696739245628,0.6613999296943303,0.7964818608419671,0.7304129336245427,0.6520688026421148,0.6494057751915103,0.7592278229822901,0.6680763608982057,0.7135579323436401,0.7589493413986652,0.6724308544220444,
9.195402298850574,0.6199725517530282,0.7038164004171142,0.6088094555347304,0.7719646168224789,0.6884202078341884,0.5929721103467593,0.5872075154022921,0.7263096414379762,0.6161447328938893,0.6693355124580302,0.7308864079907577,0.6262141059202644,
9.090909090909092,0.57852305588534,0.6761415869930619,0.5669614266950228,0.7566332134215284,0.6591277352304796,0.5457545099989315,0.5398261520310088,0.701255374277376,0.5725602168703754,0.6335619024505956,0.7030942220296115,0.5838642258084743,
8.98876404494382,0.5496316136366614,0.6552151947665517,0.5387246569957014,0.7436633752233788,0.6432892770298272,0.5180421584234804,0.515208004324292,0.6863557495878517,0.546389235585609,0.6094620160747122,0.6885713263525017,0.5583630676603822,
8.88888888888889,0.5393710625630163,0.6510646495671726,0.5291596764892917,0.7408179076063037,0.6369798757845221,0.5051907570334027,0.5027814928139558,0.6826081797428302,0.5388020240618193,0.6015996997692318,0.6816462939625061,0.549748220032979,
8.791208791208792,0.5428571466664538,0.650881077989198,0.5277737050943953,0.7409692838636909,0.636109681196697,0.5079101645349798,0.49947036966496094,0.6816637391242151,0.5350263833101793,0.5998635215930875,0.6820286373607433,0.5497031707649337,
8.695652173913043,0.5445200174137281,0.6537611427308758,0.5333810269654815,0.7455315751270669,0.6413018937208395,0.5073724945115035,0.5064148813390088,0.6832906074029729,0.5418690651637292,0.6013060464990804,0.6847581242648394,0.5552878529601122,
8.60215053763441,0.5554061687918159,0.6609764593666888,0.5444917872059816,0.7537678762427581,0.6480113984252919,0.5218463193674526,0.5171676374612688,0.6924648763227684,0.5527825042142229,0.6174343892721247,0.6938355302261043,0.5663418526097046,
8.51063829787234,0.5538335358469357,0.6606533847371588,0.540633750523514,0.7524366616494064,0.6489580093842695,0.518201645632256,0.5170067548950007,0.6922380180781078,0.5490039457009985,0.6124255274711625,0.6900147317740138,0.5611722948933588,
8.421052631578947,0.567234573614716,0.6708287825696119,0.5583733289319974,0.7618326714082927,0.6605403259817085,0.5331763865150857,0.53152801711229,0.7031757867676477,0.5635886444530277,0.6249766949612371,0.6990484482453282,0.5785373612113858,
8.333333333333332,0.5991866901889478,0.6950072674838779,0.587039831867806,0.7720383217517678,0.6839053333690764,0.5678825535135236,0.5666694639647187,0.7196059827741197,0.5998679430142743,0.652205583011019,0.7271477256217336,0.6044490394051707,
8.24742268041237,0.5736725004220499,0.6795036438463974,0.5664967941340888,0.7669302023265846,0.6705982557889306,0.5484331449303776,0.5437150709837453,0.7096930235033528,0.5732879686903793,0.6330666301423801,0.7086195338822548,0.5884350007424253,
8.16326530612245,0.5700918535518167,0.6740404376970941,0.5555067437622814,0.7636942774046187,0.6621795942026492,0.5299810177647292,0.5311675208543893,0.7026580978895176,0.5645236558358762,0.6290408362410606,0.706910053155048,0.5763994882867775,
8.080808080808081,0.5708254255903099,0.6740728422709326,0.5600883000067424,0.7633542800158154,0.6622888601224453,0.5367926399249374,0.5349732073178906,0.7035495109122288,0.5682061926437322,0.6273306907189936,0.708308026333681,0.5814100497405319,
8.0,0.5812355442433902,0.6856629019391743,0.566938980757205,0.769557776958246,0.6729554675455568,0.5490216844839223,0.5481638399208469,0.7132886411753779,0.5809260276185819,0.6380025777363825,0.7168144991041896,0.5869662743218899,
7.920792079207921,0.6120919394349468,0.7065343974317788,0.6020207958466232,0.7844431780136593,0.6963211576254404,0.5831726080863077,0.587635006169413,0.7346671753714172,0.6105659602739375,0.6630950992718498,0.7364006593722792,0.6211282717430268,
7.8431372549019605,0.6549791613562016,0.7296540112307134,0.6427238245249866,0.7954546752363342,0.7218474318403614,0.6240834020527167,0.6207233261986623,0.7505516948276779,0.6479893981437694,0.6991990603370122,0.7580161968966603,0.6549426645809538,
7.766990291262135,0.6441776520929007,0.7274674863484832,0.6381271732427268,0.7965729621013767,0.7210256911963683,0.626951713507328,0.6177275696258152,0.7511542411050427,0.6465558548069298,0.6919150565765038,0.7546386995071717,0.6537820103627346,
7.6923076923076925,0.6134304523143066,0.7100556081705351,0.6057965814981716,0.7870435050410687,0.7001002589347137,0.5812195149115393,0.5842595370071758,0.7360869511338239,0.6124790586316782,0.6644235513663256,0.7360549134602363,0.6246396034774796,
7.6190476190476195,0.5965023879430484,0.697590820143522,0.5847322679786404,0.780811931993649,0.6869907406389496,0.5639764731046332,0.5629903434495952,0.7271766365871217,0.5928633925611224,0.6507223956988284,0.7229778630112792,0.6058588811490908,
7.547169811320755,0.589896285695419,0.6950398204534902,0.5770901051060561,0.7778314187158167,0.680400105995263,0.5537476418924978,0.5584325311102949,0.7226549272852234,0.5833143888240682,0.645504704859392,0.7202140593221166,0.5996958585947868,
7.476635514018691,0.5935352495333863,0.69366133981,0.5807242468038745,0.7812595271659086,0.6808778010093564,0.5568341976624653,0.5573364368674976,0.720963497433204,0.5896244129273919,0.6452108862698164,0.7246708992613952,0.6029267099614815,
7.4074074074074066,0.6029811982176794,0.6986488122616055,0.5907938773607211,0.7878507651239414,0.6914606115118286,0.569027644737615,0.5725989366295454,0.7330109254604605,0.6036287132470917,0.6570063559968912,0.7313702937797761,0.6129613567837594,
7.339449541284404,0.6270670311135692,0.7192258627950417,0.6205226900473252,0.7960542487739298,0.708639217737038,0.598532548551378,0.5972445898109107,0.7453036686227612,0.6279620024670683,0.6779353032947707,0.7464156123287199,0.6365613304623456,
7.2727272727272725,0.6464189628280731,0.73188568873572,0.6417945455321606,0.7984848915195272,0.7207842074269095,0.6154997722778304,0.6177130537740317,0.7558866784612404,0.639757956238404,0.6925144951677156,0.7541397848670238,0.6548428580847433,
7.207207207207207,0.6174670355043039,0.7103056667186629,0.6072891487189502,0.7943697038249266,0.7045474543290194,0.5866305731197234,0.5861146367026369,0.7399922157788881,0.6158411984518121,0.6693390962175756,0.7395497698455924,0.6290512667529705,
7.142857142857142,0.6083679697134808,0.7096249801910506,0.5931088470888729,0.7896496402903243,0.6959598913428128,0.5715148220414796,0.5740843009896763,0.737284901257655,0.606762685200857,0.6610492834637886,0.7365317449421674,0.6180757501970701,
7.079646017699115,0.6180817913772118,0.7194836571708244,0.6061301233027973,0.7963405491801617,0.7060690706581036,0.5867827432759765,0.5876776056253329,0.7429981749635322,0.6138745241562342,0.6718071907812557,0.7439556460896612,0.6296766906400506,
7.017543859649122,0.6372693351511424,0.7246499675180484,0.6275200110448089,0.8025099947568102,0.7126161546304672,0.6068916041320372,0.6050975080380216,0.7478476012180681,0.6360843157604895,0.6826569163715551,0.7502104555689262,0.6438156241369588,
6.956521739130435,0.6185746283533554,0.7179440266946395,0.6120549389044205,0.7971861163916671,0.7074976814264259,0.5901087654739452,0.5907682111213313,0.7480563688850599,0.6196505863252548,0.6700735507449799,0.7438529237153887,0.6328170986564917,
6.896551724137931,0.6255199621033399,0.7225561500017732,0.6112986195517006,0.7974966133836027,0.7147344323122005,0.5916741769930737,0.5990629725700292,0.7497200366024258,0.6232730952796076,0.6739779509688044,0.7497219263674944,0.6325145740155772,
6.837606837606838,0.6241112893085283,0.724199742523626,0.6149566266449699,0.8001814424071694,0.7125205450818554,0.5912032640106497,0.5941872049315013,0.7507803241684712,0.623234035332803,0.6783026006156605,0.7486987792041163,0.638749682552881,
6.779661016949152,0.6229990514645473,0.7208319355756095,0.6132950121511345,0.8009637302175818,0.7130670292247948,0.5918785980842599,0.5971024348855742,0.7479445125984325,0.622155036960831,0.6771347961439271,0.7456982866554482,0.6312276235442856,
6.722689075630252,0.6274287674076405,0.7275999301252013,0.6162126241314703,0.8016304064509461,0.7158802676516871,0.5989918227863398,0.6027510667901275,0.7532096528939293,0.6279823025210096,0.6814498802777426,0.7511446343966816,0.6421676298059045,
6.666666666666667,0.6344704108149171,0.7267610581178308,0.6249583166594664,0.8058084942007451,0.7196398017423786,0.605488754137046,0.60697377682658,0.7572591598457847,0.6326085318677771,0.684122420871217,0.7533665502256666,0.6421548642587548,
6.6115702479338845,0.6408790377615842,0.7362894681448718,0.6317812209032615,0.8081600685280775,0.7273032206938549,0.6105380038074151,0.6116676225968962,0.7603307145640487,0.6362137349442932,0.6912290730882202,0.7576998700131058,0.6512870815903082,
6.557377049180328,0.6507950859307434,0.7443223437281073,0.6401993476663105,0.8124484520130326,0.7332009451582848,0.6217908785152897,0.6256194905212915,0.7666324379645091,0.6489451335484658,0.7018744679104174,0.7653569094674426,0.6572623147467795,
6.504065040650407,0.6646251023346529,0.7505098891193517,0.6542576784512429,0.819397929106112,0.7432239152200684,0.6404043429784219,0.6434710680385954,0.7709658648004849,0.6665190648237229,0.7139342625984185,0.7752592508859193,0.6771966934142629,
6.451612903225806,0.6785122774854577,0.7590754193566472,0.6704675420421459,0.8274907405935705,0.7506716021272627,0.6555172115422024,0.6577290414733764,0.7843490863806516,0.673832366735595,0.7204277136014064,0.7815080850063973,0.689109683549469,
6.4,0.6980174071589945,0.7737295461457262,0.6894745410879024,0.8341821729320821,0.7659796345023279,0.6755334128929755,0.6746300492146395,0.7922621993291507,0.696277736141028,0.7406584707348535,0.7930467888758516,0.7066134119003351,
6.349206349206349,0.7149175110624001,0.7868729904241812,0.708883046886857,0.8395557660606896,0.7776066730331406,0.6994888036852583,0.6985866192100321,0.8053563975892121,0.7188753356277232,0.7591061670921121,0.8065411258952143,0.7243588776909131,
6.299212598425196,0.7464935292389787,0.8000184787302008,0.7318118509560751,0.8541246675056349,0.7910255940717552,0.724624761784569,0.721522499314286,0.8153020673250642,0.7345170687782077,0.7757256529358549,0.8225655519542924,0.7449379597635519,
6.25,0.7569042339211709,0.8092070556548949,0.7545063149544187,0.8641890051422731,0.8142793218662095,0.7543212919773832,0.7491224024378812,0.8366382199329913,0.7553160471962821,0.7955106308263201,0.8379887858573463,0.766731238369006,
6.2015503875969,0.7460738850737937,0.8021066183770996,0.7387306273609362,0.8563744298024402,0.8015924308785285,0.7230585122178274,0.7280490572082671,0.8194528366542334,0.7443778817678459,0.7828255554864697,0.828195986542423,0.7534089436777105,
6.153846153846154,0.7249358466587845,0.7918718392938808,0.7197289966811294,0.8479707165860704,0.7847728436637439,0.7047856474126452,0.7051030942326526,0.8135037822812442,0.7226120175621761,0.7593788101505614,0.8092723429630024,0.7302564948785224,
6.106870229007633,0.7089905863106954,0.781598278240413,0.7011611016573991,0.8395081358628081,0.7735455338391601,0.6823983594299898,0.6832848499477008,0.8007194182111718,0.7077190058990462,0.7507998995679539,0.8046498904709828,0.721855716863099,
6.0606060606060606,0.6985573024692211,0.7715406270275118,0.6894458578576625,0.8368087117364891,0.7668423824286031,0.6702818759663021,0.6723616189443803,0.7963503244795216,0.6986702263118314,0.7370519350924356,0.7973095934761254,0.7051067791306794,
6.015037593984962,0.6901884026342099,0.7639385499427567,0.6782485985166199,0.837058889746673,0.7645224515027136,0.6638968888331357,0.6649980427867573,0.7917118617234762,0.687860433378926,0.7323732721501416,0.7919754521808399,0.6981826506414116,
5.970149253731343,0.6797245483021096,0.76410153975192,0.67259953524616,0.8302915813553177,0.7541340224444296,0.6475923076560186,0.6551707613288588,0.7885118390504238,0.6809648203370421,0.7217703463422542,0.7861785503608739,0.6901851235602664,
5.9259259259259265,0.6832114380320563,0.7626191299501887,0.6713663881445514,0.8334391889185154,0.7568186725005069,0.6501674255904946,0.6550131028206763,0.7884131756028406,0.6786515728242029,0.7273758061322216,0.7842780389143595,0.6911639677073527,
5.88235294117647,0.6775158546773119,0.7606217871212411,0.6691139236021334,0.8322946453630862,0.7543798810343159,0.6449552412296102,0.650853532936072,0.7855870309833747,0.6740358171111811,0.7229068053422938,0.7811637543947869,0.6825953235764639,
5.839416058394161,0.6718671558497069,0.7638615283752556,0.666184091480405,0.8333383670918626,0.7531546427052639,0.6457317885285743,0.6498809536154193,0.7880850526258404,0.6731103157522145,0.7202932654218747,0.785499696367269,0.6858398901137341,
5.797101449275362,0.6742119267228095,0.7639103654844077,0.667627837426327,0.8332724209514396,0.7584672166132254,0.6496046126700741,0.6566677198064622,0.7938247911091104,0.6741958579876048,0.7272324292918363,0.7904702807476129,0.6883074087307164,
5.755395683453238,0.6800366150253061,0.763366595483856,0.6732973470201129,0.8355822141764047,0.7593511801578189,0.6512604218059528,0.6542945950634724,0.7920613538943629,0.6774110873961458,0.7257332273506522,0.7906698588172852,0.6870230354490603,
5.714285714285714,0.6823628348481047,0.7700719080988999,0.6741619552225168,0.8353873020829079,0.7619179780794987,0.653697897407715,0.6618119018350315,0.7911038831026013,0.6800195009426478,0.7276389218506442,0.7929506052177885,0.6901727245166552,
5.673758865248227,0.6853152512934234,0.7703058027679877,0.6795893955584591,0.8391930479140848,0.7645391246992599,0.6550066782835617,0.6602592466033461,0.7926069919770827,0.6835955155368374,0.7305660309960251,0.7909862871340619,0.694023374115371,
5.633802816901409,0.6894099564318987,0.7770319301058981,0.689491381360417,0.8384680945034791,0.7702391303335874,0.6617498632419289,0.669840234114584,0.7965522399910434,0.6931222338969907,0.736444281740285,0.7916924640526655,0.7036359316384228,
5.594405594405594,0.6865489685350672,0.7712316837489108,0.6792247223649721,0.8377835076094046,0.7648549667681521,0.6619860359600854,0.6619596003481354,0.7951535807412226,0.6862998128078125,0.7333805513786229,0.7937682871383935,0.6968638033535935,
5.555555555555555,0.6887786087985192,0.7738999762581356,0.6806029799946296,0.8435159446051844,0.7643659972105481,0.6601193804575932,0.6647996282803277,0.7974872710751154,0.6908362965384951,0.7354290828995174,0.795358746381931,0.6984019838162343,
5.517241379310345,0.6968440548009538,0.785346432434584,0.6937675607908647,0.8460403299223926,0.7724036751060684,0.6726201279084435,0.6767673061194107,0.8024036674421141,0.7013031403746488,0.7419929427180828,0.8025034930575419,0.7101029018446624,
5.47945205479452,0.7135982723607971,0.7860071348775066,0.7048586599773836,0.8493347127315826,0.7813275326017064,0.6944525547254493,0.6962779480465904,0.8113154563761208,0.7131015944263098,0.7531439295314581,0.8109813829178968,0.7232301893055149,
5.442176870748299,0.7109146141835768,0.787540008942386,0.7047287971766234,0.8517121505537006,0.7840318625973187,0.6885574743938881,0.6904247930562175,0.8115828377443802,0.7110632331374217,0.7525880670612587,0.8078730649174953,0.7206059443204066,
5.405405405405405,0.701002499550017,0.7840595591135531,0.6925411950569087,0.8476496013524273,0.7726402459145922,0.6774138837602043,0.6780191065908294,0.8053015507227175,0.6962396629131113,0.7415025937670394,0.8038274832976084,0.7088896421804567,
5.369127516778524,0.697815133679946,0.7849356209060693,0.6897215811789874,0.8475298770323741,0.7763115236591562,0.6712061513795509,0.6790254150002618,0.8062570607516099,0.6968775347108612,0.7382911098143347,0.8069714079677917,0.7108957435336721,
5.333333333333334,0.7007799862921734,0.7871253261537894,0.6894547330253101,0.8501355834371672,0.7718729999163102,0.6690790531409824,0.6795937570286058,0.8047676851664382,0.7032949042022318,0.7394912458342393,0.7975900647616896,0.7118506692607371,
5.298013245033113,0.7102480359559048,0.7893243636997679,0.7037451614000102,0.855187803569506,0.7841599112851685,0.6871692300618005,0.6946057149639114,0.8144766318232154,0.7073898021475377,0.7545902155583295,0.8098568798415857,0.7204178681906829,
5.263157894736842,0.7205153194012208,0.7967133350837348,0.7149922986169303,0.8564429429665422,0.7881607237828439,0.6984242920772638,0.7009501661251352,0.8149414825956972,0.7199559673963395,0.763387107084861,0.8194070824001582,0.7324633399099796,
5.228758169934641,0.7382387808838647,0.801565217841177,0.7263945843957097,0.8597805525322976,0.7964050808061425,0.7073221333678235,0.716105270597261,0.8225168616429129,0.7354274913892308,0.772901223612844,0.8214405758589702,0.7403166772559439,
5.194805194805195,0.7391891328301347,0.8021296851529699,0.7288911003950805,0.8616949041832063,0.7997589108994357,0.7192696531083322,0.7222175754991209,0.8284735417938806,0.7346399641454352,0.7715438314713741,0.8269646078188262,0.7451768395839221,
5.161290322580645,0.7266051622735998,0.8024357271020038,0.7176630265934593,0.8596185080477422,0.7939243939578636,0.6969972185335623,0.7058288666555955,0.8214641131733172,0.7224214152392523,0.7662969979126805,0.8190848299139509,0.7357788524935893,
5.128205128205128,0.718454114309795,0.7992825053273749,0.7131878610197807,0.8585325315376614,0.7903586848011281,0.6927971040971251,0.6975987514922803,0.8146547921359826,0.7229739904852701,0.7613982969973123,0.8166324358499094,0.7338742326094163,
5.095541401273886,0.7104191125961986,0.7932524422791447,0.7049933466228401,0.8578468559436147,0.7902485226311868,0.6852231171332531,0.6961309147322593,0.8172490231422366,0.716024853828467,0.7558556076898233,0.8135731051017043,0.7255628467364845,
5.063291139240507,0.7181254490097266,0.7988493392545266,0.7117173566807319,0.8618260949263791,0.793974122984628,0.6914803133835319,0.7044112875122609,0.8197315941640664,0.7208100433224249,0.7604721168499462,0.8201701202892451,0.7314827246012117,
5.031446540880504,0.729416840531549,0.8044583085770239,0.7200583462354121,0.8618514047444075,0.7967494123698974,0.7023651151882746,0.7109762895538025,0.8223006337175639,0.724449048188115,0.7658810013585923,0.8204035827827527,0.7380349928778385,
5.0,0.7362432939336725,0.8087505844102131,0.723686023116923,0.8645716549872038,0.8012010667253853,0.704769799263037,0.7171814391606962,0.8268576366582119,0.7352365419401368,0.7713837450544113,0.8314845995272876,0.7413265228440314,
4.968944099378882,0.7337403667802389,0.8035124926546758,0.7192323783480113,0.8642772977904983,0.798579689878855,0.7079778762853157,0.7167199402048381,0.8281130481125368,0.7288764976603223,0.7732348657590158,0.8264144515794427,0.7353809994413607,
4.938271604938271,0.7278580573619277,0.8050391442252851,0.7206441988148932,0.865601647691734,0.8020613758210622,0.710017802592176,0.7145119787438382,0.8266804746695186,0.7329515216455029,0.7695207726506336,0.8270515741964387,0.7442718425634305,
4.9079754601226995,0.7286816548422577,0.8056325261039641,0.7200067362010069,0.865965364852475,0.797208192088267,0.7047282253023683,0.7148659881445151,0.8277502883184861,0.7320949635282329,0.7674845045981464,0.826252418198026,0.7401133236476577,
4.878048780487805,0.7303582120476594,0.8067787665686154,0.7242529308723994,0.8639972337202174,0.7999329071437452,0.7030024453217685,0.7139318661020285,0.8272690630715342,0.7304595832109414,0.7718415597008287,0.8280917299982835,0.739616787904468,
4.848484848484849,0.7319112974364744,0.8078363336981089,0.726744633540298,0.8670642357718465,0.8023454661553746,0.702303400063433,0.7163307097673055,0.8293442468980358,0.7322874353779795,0.7692445254645813,0.8254628045623325,0.7430230041799563,
4.819277108433735,0.7384271763310845,0.8112238610416551,0.7286292856020113,0.868299306272186,0.8049234258627318,0.7112162216397958,0.7154070975314951,0.83253302063846,0.7405899858286806,0.7717306972161759,0.8306892927394481,0.7467264067661307,
4.790419161676647,0.7382560491623339,0.8111705229497147,0.7337213076947233,0.8730536348798404,0.8037846331096399,0.7167829938216373,0.7216521178558064,0.829474898391442,0.7397233508044548,0.7742681136955845,0.8306557933137898,0.7531052357950492,
4.761904761904762,0.7518580823390152,0.8233539205700638,0.7461069408227213,0.8777893705503559,0.8183848268347284,0.7282751351367409,0.7328517779879136,0.8390407581423043,0.7527176547434087,0.7876401145126938,0.8386548111035289,0.761858596362823,
4.733727810650888,0.7598941454531231,0.8252136009372716,0.7533450910991535,0.8773510876946921,0.8235453270272985,0.7383464417838037,0.745544249976325,0.8446354761576422,0.7592804921379942,0.7966444848177057,0.844212693544571,0.7709563159903076,
4.705882352941177,0.7696833404037293,0.8347996711998065,0.7631698276444596,0.8824439518961671,0.8275756873809621,0.746018287258174,0.7511723578449945,0.8491025590926904,0.7684426220682219,0.8075543198356584,0.8459159021134391,0.7789968454950584,
4.678362573099415,0.7694278286222381,0.837089733644932,0.7723988684665475,0.8832596933797991,0.8286813250968587,0.7537921176311853,0.757552274617329,0.8478304899564533,0.7717608200213923,0.8070185526604343,0.850445646839705,0.7855555617012718,
4.651162790697675,0.766031489040878,0.8295104471571371,0.7616479509857885,0.8806558878456029,0.8281758446809131,0.7462941596711085,0.7553330120066004,0.8518487754948836,0.7699479304499449,0.8024338512746237,0.8453826240202644,0.7784892771095933,
4.624277456647398,0.7574154824720566,0.8247356392730224,0.7541349728538284,0.8798750102689118,0.8227191278665579,0.7417228905361238,0.7484251189369421,0.8457525052487057,0.7602772857481682,0.795422411694796,0.8413785932952366,0.7692763857085262,
4.597701149425287,0.759360428369884,0.8257741572134043,0.7523880638910451,0.8797209958316451,0.8217587621053131,0.7392294981005567,0.745123079816143,0.8432473561347228,0.7586254065337212,0.7942636406455856,0.8458151399440719,0.7674637248030843,
4.571428571428571,0.7560053115862435,0.8227892961532328,0.7464204806393276,0.8788211159383087,0.8191783599517972,0.7322984659671433,0.740351984880401,0.8451035222611817,0.7550294470144768,0.7919592298109528,0.8418666412334039,0.7640576223805574,
4.545454545454546,0.7577248032515499,0.8280676845067587,0.7494503140103739,0.88054825515699,0.8198887970331438,0.7331164410890008,0.7408893599795996,0.8475256872671265,0.750646943707598,0.7924775419714969,0.8433111363380094,0.7649841478662772,
4.519774011299435,0.7563705384371463,0.8270797419269923,0.7486449169340331,0.8815517238697883,0.8218895076410132,0.7368341575456089,0.748440612345432,0.8445702400450165,0.7553091577266395,0.7960182952002289,0.8481733370999142,0.7743638333643287,
4.49438202247191,0.7551986759967093,0.8301764405583698,0.7509081953233266,0.881520599778193,0.8246162290218154,0.731397034293668,0.7419795880433784,0.8507218533920783,0.7611870825233115,0.7955739882124989,0.8459635412312849,0.7710047161503214,
4.4692737430167595,0.7578411236770403,0.8301914161012105,0.749516742998057,0.8822265890059159,0.8228559713790686,0.7344298525225542,0.7419168421049953,0.8461099090632738,0.7550734537616843,0.7937572340382125,0.8463507814196705,0.765701067409676,
4.444444444444445,0.7613926902075893,0.8296883464342872,0.7502814362151851,0.8843956239764903,0.826671215473971,0.7349635107474076,0.7420438373149129,0.8454427943501976,0.7568383489717052,0.7936235882234092,0.8426537876884264,0.7671517990460917,
4.41988950276243,0.7556462608193875,0.8340904068430834,0.7532327748938183,0.8845677147420901,0.827395724771882,0.7337295564997436,0.7448694523322155,0.8519455909186494,0.7615239785449066,0.7923835499705758,0.8511582544512818,0.7711452026577035,
4.395604395604396,0.7640890774747165,0.8338009274021255,0.7580199272144367,0.8859388926459743,0.8272192803434373,0.7445770576680223,0.7546027875394249,0.8544343926410255,0.7665851835431217,0.8005034638399081,0.8474400637179137,0.7791617783203394,
4.371584699453552,0.7706156601742598,0.8304858108050112,0.7646721499350679,0.8884130597451178,0.8300083511232058,0.7473729340681309,0.7550344134538622,0.8544365456823898,0.7704218440058382,0.8043387822617494,0.8515648757595888,0.7781078040435769,
4.3478260869565215,0.7641922877970269,0.8353011694802919,0.7597172121967698,0.8843573176883344,0.8272901597741977,0.7427418225288961,0.7524318581253349,0.852606085789304,0.7646585325343137,0.8020214534639041,0.8512003358463774,0.775070977275712,
4.324324324324325,0.7688453067204798,0.8380663627734805,0.7647968227133827,0.8865861704492614,0.8328106068765332,0.7493047107624965,0.7567596058884074,0.8513067274645049,0.7685998506878042,0.8006362678361464,0.8536007264507366,0.7782063951072068,
4.301075268817205,0.7679942280289096,0.8378486915872364,0.7610767040018224,0.8873602168518596,0.8305598950588495,0.7480390604847944,0.755830708870269,0.848656940109497,0.7705314093071531,0.8029422812223099,0.8503187993539735,0.7811494052785503,
4.27807486631016,0.7726740276899735,0.8406675772870245,0.7716699933464296,0.891232965442058,0.8326263392507928,0.7524804226622458,0.7591122346104783,0.8546905766497298,0.7757627803036008,0.8099307813704619,0.8567902774162133,0.7810426165936485,
4.25531914893617,0.7735919704909635,0.8390851673224715,0.7650378282960404,0.8906510224067192,0.8364669476053377,0.7496768194539646,0.7596320483208401,0.8566393873089206,0.776228520199871,0.8109359083844807,0.8553225546076647,0.7845389788531667,
4.232804232804233,0.77181992436862,0.8426705901143728,0.76481532466311,0.8918072195766094,0.834386787660048,0.749857028789169,0.7603111926129027,0.8626018905847517,0.7707227934928901,0.8079134122492578,0.8544814956668437,0.7835730000625274,
4.2105263157894735,0.7722085527187519,0.842834568949599,0.7722560151609319,0.892939173889446,0.8386512635503751,0.756060463527886,0.7657952686956235,0.8608716236885136,0.7787635475963298,0.8110844813655983,0.8634674335969998,0.7898072824367719,
4.18848167539267,0.788302238789571,0.8514674181817803,0.777273850430257,0.8940075113779649,0.8458017505316187,0.7667478247263865,0.7713045784196856,0.8654358983079614,0.7864952571600727,0.8160873453274797,0.861262213911618,0.7880291114389534,
4.166666666666666,0.785496276936781,0.8549614391922542,0.7784066678542164,0.8977484135924748,0.844745535934148,0.770717144972705,0.7807253552306463,0.8716825411073778,0.7886654852113452,0.8214813676894587,0.8660151670406638,0.794781787291556,
4.145077720207254,0.7876803295583978,0.8501447980987514,0.7835411002409222,0.8959435007724804,0.8454136957076922,0.7698040681638472,0.7771171466718038,0.8649623891493975,0.7878370437954987,0.8182704863627501,0.8661062524338584,0.7967106922865153,
4.123711340206185,0.787500055061896,0.8465942356669507,0.7803169222538964,0.8956053917069023,0.8401154409464303,0.7621839639305397,0.7687361107329915,0.8648472739828332,0.7850936776037077,0.8172577222817884,0.8640476308601097,0.7991760000204177,
4.102564102564102,0.7795165612174496,0.8454067479595063,0.7777317071374079,0.8947222252454984,0.842028541975448,0.7619944666836118,0.7675222390369348,0.8619228431061179,0.7907643666212677,0.815497791276136,0.8585570876787163,0.7912471055410853,
4.081632653061225,0.7800253494386009,0.8449855797764677,0.7745432291464894,0.8926548377921062,0.8409951267011349,0.7571231933563168,0.7683244453499158,0.8611266315442645,0.7807128329407143,0.8139790293803346,0.8574100253301322,0.790218155000231,
4.060913705583756,0.7825268237914238,0.8464357464239267,0.7758725662371401,0.8947576983752372,0.8418552856803787,0.7614226891618231,0.7705674852637906,0.8606079674207587,0.7857230992780159,0.815179467960097,0.8632658366433068,0.7898778842558998,
4.040404040404041,0.785283229709391,0.8486901389737466,0.7758047916166652,0.8949398125520539,0.846293516276893,0.7680993326253729,0.7700764751746595,0.8654431995240881,0.786837193625117,0.8207700442207118,0.8644013212240138,0.7940467073323165,
4.0201005025125625,0.7892601497781323,0.8519306865127394,0.7806979562516754,0.8966037307815407,0.8471715182943762,0.7651656254738605,0.7716285538326866,0.8660803720150673,0.7859998434010439,0.8218894449290642,0.8652881842986222,0.795975318067819,
4.0,0.7940767969999355,0.8502995105599798,0.7835209219444594,0.8949730635275567,0.8471279685779478,0.7669443766320909,0.7774458407370465,0.8668358053881213,0.7936571405591768,0.822794212715901,0.8647388734720072,0.8015686961093248,
3.9800995024875623,0.7898394465757302,0.8454809472579929,0.776692582521621,0.8962873832635458,0.8480476184048646,0.7704203663146681,0.7764360388958622,0.8658385439306675,0.7887779250556872,0.8238103793063043,0.8654512951513085,0.7999068503582878,
3.9603960396039604,0.7870383270093086,0.8471497691917167,0.7835061331924084,0.8983052075827,0.8475539469655291,0.7655513268750735,0.7747977640337201,0.8684335190052282,0.7897024360396201,0.8203138163955236,0.8661709605581805,0.7988357935246659,
3.9408866995073892,0.7958198897931938,0.8546066785930884,0.7882108873769691,0.9005773126447802,0.848673181435329,0.7685442053228863,0.7787620504817331,0.8673041207351455,0.7907209021410255,0.8212888662133699,0.8687485551442015,0.8018966380999298,
3.9215686274509802,0.8017596384975165,0.8552373614059045,0.7906174926894637,0.901030158584165,0.8502882342306155,0.7787849056344733,0.7870725312891266,0.8742163009696066,0.7996487646331929,0.8307159466414117,0.869825316823435,0.8053725139608061,
3.902439024390244,0.7998396849111101,0.8587426532029554,0.799197992560755,0.9016031103577715,0.8570516629821783,0.7842445054099092,0.7909014237133489,0.8742511634647775,0.7984335212863687,0.8294659530695684,0.8709050616721665,0.8102744871509125,
3.8834951456310676,0.7966164264988012,0.8549345333046466,0.793461245403635,0.90069587800889,0.851329027180101,0.7791589823570125,0.7823698307823205,0.8688761138846239,0.8032980174620201,0.8290750729597469,0.8685564981247352,0.8054897200178933,
3.864734299516908,0.8008486584250158,0.8519827777351464,0.7896719814786503,0.8990426470831095,0.852508526125124,0.7761966680672058,0.7814128872073922,0.8733926024306443,0.7957181469690292,0.8238591920643159,0.8722818079906696,0.8029951849551625,
3.8461538461538463,0.7989563501060817,0.8561875631524392,0.7908435747597057,0.9018443617652182,0.8506948558159213,0.7808072660509588,0.7841648604089564,0.8719897077471063,0.7988549552799604,0.8288842044831651,0.8730039115479696,0.8036768755966619,
3.827751196172249,0.7984611045874362,0.8567640802501943,0.7933641707027654,0.9041303584175788,0.8541911974037933,0.7797593871124231,0.7905765234210073,0.875075052312835,0.7964497209178244,0.8307317085078544,0.8705740375895671,0.8105152776522033,
3.8095238095238098,0.7996256564435772,0.8579926803282227,0.7905458100940734,0.9032591387831533,0.8553678544968714,0.7807899224544265,0.7923349747906011,0.8766344569071168,0.8025051093528621,0.8269881126330505,0.8766814095417222,0.8111578298516217,
3.7914691943127963,0.8029202641651567,0.8601698335867929,0.7930702886783186,0.9046617077573165,0.8555666384199085,0.7770260180824149,0.7895779893794294,0.8712483040436778,0.8042392470373717,0.8319620598557049,0.8766951102380365,0.8112240302397766,
3.7735849056603774,0.800600279799329,0.8633593114023113,0.7971743472171733,0.9065385714109637,0.8555157953114301,0.7831558761887725,0.7911143629941179,0.8736824418017594,0.8015080018639298,0.8344830213284875,0.8744925866609484,0.8106733312909137,
3.755868544600939,0.8040125382195348,0.860400584282042,0.8010652035294846,0.9057131370048987,0.8558753679143858,0.7845254383991622,0.7920668191611216,0.8802397217971841,0.8035810463995214,0.8315347483016381,0.874463495087499,0.8151751529867065,
3.7383177570093453,0.8024321628114296,0.8604435996664457,0.8052537407397136,0.906346726435767,0.8587206271253776,0.7844400805728656,0.7929157276529681,0.878452092885734,0.8018814216450387,0.8365178880916121,0.8798459538481128,0.8140043652863235,
3.7209302325581395,0.8082103885462825,0.8640952981861436,0.8008935368609419,0.9090133854670587,0.8594058727666113,0.7861490013356344,0.7993669845032937,0.8780981081509187,0.8084298004988513,0.8388619321097951,0.8769368732871816,0.8171067387279991,
3.7037037037037033,0.8064629274988496,0.8668250093562037,0.8060244052671905,0.9094858087534428,0.8624248965056417,0.7882411011665388,0.7967090889997328,0.8829859783981029,0.810955295456522,0.8371958019825323,0.8816795909271566,0.8198246404344871,
3.686635944700461,0.8108155714330916,0.8633245044602791,0.8006263703271853,0.9080561916171396,0.8606235296972171,0.7885534470381813,0.794918784642036,0.8784991311845978,0.8078192334435741,0.8353376260822137,0.8799844107581899,0.814953633031701,
3.669724770642202,0.8110029250117259,0.865587788711963,0.7994071281363236,0.9088430655812341,0.86150145156541,0.7977129588176692,0.795091682615763,0.8797992214661553,0.8101501077626219,0.8354686720118002,0.8845491622826497,0.8167255124438386,
3.65296803652968,0.8073749396488298,0.8690891350315116,0.8071970367701059,0.9141527916272087,0.8626727584817037,0.789391215390925,0.8030300755579122,0.8814581340957675,0.808744893310918,0.840140141081173,0.883069037121154,0.8194298994491919,
3.6363636363636362,0.8111097363161627,0.8689451754478533,0.8121564483940177,0.9093528287461722,0.8639174494900861,0.7955039263432087,0.8033409195891509,0.8843279850585753,0.8156679027565061,0.8442796952696118,0.8838715531003479,0.8225485037398502,
3.619909502262444,0.8094885883861916,0.8648806640137922,0.8079575884878009,0.9143525980602087,0.8656105840641781,0.7945014992443873,0.8021190706051176,0.8843261828850478,0.8135715084387095,0.8408776028795704,0.8827250120909079,0.8260286318497831,
3.6036036036036037,0.8159861095848051,0.8670548807410325,0.8103463056719822,0.9139865235698088,0.864757153818517,0.7966185846010733,0.8026612833907824,0.8870795828785769,0.8140738040297401,0.8401468405084072,0.881360162468899,0.8214240391094287,
3.587443946188341,0.8131604885962399,0.8744763011494495,0.8096149105213608,0.9107780129934777,0.8671516419731111,0.7957951439851205,0.8051578915507102,0.8884918329547691,0.8184123715235664,0.8415006454184988,0.8872082720265163,0.8268202520607831,
3.571428571428571,0.8174794052993972,0.8712316167081883,0.8116762601290839,0.9160368427749596,0.8667452418555465,0.7969752056415277,0.8070375380193427,0.8862398466687209,0.8190301553215169,0.8438259835579511,0.8858572947361125,0.8189524690826766,
3.5555555555555554,0.81673806796693,0.8706611990073085,0.8142716002368291,0.9124129636015598,0.8663555898605529,0.7998966401467702,0.8059587985793819,0.8859043355642026,0.8186030739082868,0.8465011687330952,0.887538576096645,0.8278997736712403,
3.5398230088495577,0.8180651720465759,0.868303022324346,0.8147037436723128,0.913240823123101,0.869636534312522,0.8031222703304742,0.8042106985354092,0.8876248175096279,0.8188900033544272,0.8446627221831117,0.8856417983810843,0.8274565958663093,
3.524229074889868,0.8156443439585156,0.8775553319385976,0.8134704313386005,0.9156042023732228,0.8668920421958547,0.7986193481520178,0.8062688650643822,0.885859373296656,0.8171729319053139,0.8469399432154919,0.8848293413094098,0.827838806408417,
3.508771929824561,0.8207308415856231,0.8758501352951921,0.8123533781477081,0.9155445795140117,0.8719549099022132,0.801519014796362,0.8112316219787493,0.8907344746235932,0.8202885695038497,0.8497491412604388,0.8868931659598022,0.8295868294341062,
3.4934497816593884,0.8217514574852491,0.8758629596091574,0.8172490532949157,0.9163834730890664,0.8677337537877654,0.8031998480850143,0.8098726294957558,0.8921305697719611,0.8188128803822677,0.8484107125499389,0.8856901709752558,0.8321117050092615,
3.4782608695652173,0.82016950573555,0.876560136501091,0.8132780343168279,0.9154018271828199,0.8717366141547036,0.8038715009001147,0.8078612017669198,0.8918260466743573,0.8199504889734994,0.8499738437585275,0.8848669093755211,0.8240440428504172,
3.463203463203463,0.8238626185030385,0.8780111360956082,0.8198963815367625,0.9176842679868465,0.8734130131538095,0.8034402691152575,0.8170431597009445,0.8926712550038302,0.8281078806889746,0.8506451828780701,0.8891609837172663,0.8325775779907427,
3.4482758620689653,0.8207418564519123,0.8763896042478372,0.8158108701362851,0.9175308489773649,0.8748148076907574,0.806127142577841,0.8143879337918323,0.8914727781635482,0.826418022297071,0.8511979508396926,0.8936288672270449,0.8309991985014699,
3.4334763948497855,0.8260006565621365,0.8760430709054902,0.8210756153173194,0.9192233694084438,0.8701963606645712,0.8096363059070726,0.8127641160349625,0.8885790308557396,0.8288708639791043,0.851926946024535,0.889587998138655,0.8307346025541195,
3.418803418803419,0.828880010592909,0.8816759293001487,0.8189355018019702,0.9168645461662698,0.8741328177354054,0.8079025056973204,0.8184122427143408,0.8928831765943691,0.8282811205819877,0.8550344662883074,0.8894522466137766,0.8331814914111378,
3.404255319148936,0.8291173271817067,0.8808412263837927,0.8243610278919005,0.9198606015262418,0.8772341302743907,0.8098151034754117,0.8172003453554311,0.8918770756943712,0.8306443618782172,0.8543632533226501,0.895302612536779,0.8369159427441751,
3.389830508474576,0.8292123618279252,0.8800518828812923,0.8266471338809069,0.9193261008242757,0.8769117049347622,0.8095075794271017,0.8160213290643532,0.8946980548612716,0.8272346585434697,0.8551205542699867,0.8939918957817043,0.8400912776219243,
3.375527426160337,0.829806601373136,0.8827781455471422,0.8252730560135937,0.919889331400916,0.8785103717725224,0.8142031079289237,0.8215296953831317,0.8909531693001315,0.8287605296244118,0.8561153167566462,0.8927555132902391,0.8377643516756057,
3.361344537815126,0.8305971597459968,0.881258224918946,0.8301614655148571,0.9197155768676343,0.877335651749047,0.8167911056004891,0.8234100318829752,0.8964263591561284,0.8333283043985349,0.8574482170593766,0.8929440196740895,0.8422139434641325,
3.3472803347280333,0.8332776823238782,0.8818127092147888,0.8331529809906801,0.9197422295362423,0.8814431532670876,0.8169690287704986,0.8277255299261581,0.8988288764288667,0.8364938713068722,0.8625855449961374,0.8971707904245052,0.8434257682268503,
3.3333333333333335,0.8371770229523096,0.8848652936920874,0.828440519139979,0.9224140691178455,0.8778475219480778,0.8211209459169347,0.8278734748056276,0.8963473161021868,0.8392564523349456,0.8601202082591026,0.8956540723749047,0.8463257459473301,
3.319502074688797,0.8296877248698327,0.8862554761123224,0.8253297987689023,0.9253573161910962,0.8828644213895975,0.8149482116595217,0.8221482494505449,0.899398100499839,0.8323079276368448,0.8586741964395783,0.8956634012407401,0.8422105181526418,
3.3057851239669422,0.8333937617337897,0.8886517504561606,0.8326219219686719,0.9229951474464021,0.8818894558525856,0.8175682138725368,0.8295895462654403,0.8985629289926983,0.8401658757600309,0.864194176364315,0.8992275428965758,0.8421466394587004,
3.292181069958848,0.8363843311814964,0.8866053163195878,0.8357271497219758,0.9239548939603869,0.8852151172798204,0.8187709817887515,0.8276977908319426,0.8986830417889722,0.8406686772162908,0.8631709835694054,0.8959527011711673,0.8420601072654443,
3.278688524590164,0.8377182713046799,0.8853191383417165,0.833822405245641,0.922695854408929,0.883595075879335,0.8195317608098701,0.8275486527175124,0.8962286742205542,0.8381126805588218,0.8625418327497058,0.8997819279011059,0.8505506994265213,
3.2653061224489797,0.8351378264499406,0.8865026651923887,0.8361952116346599,0.9237161714109894,0.8851472308466897,0.8277470651396003,0.8304534830109598,0.8963732061739647,0.841468001826162,0.8634116179450747,0.8986140526129383,0.8487924295454723,
3.2520325203252036,0.8373093587528049,0.8878729495402552,0.8367488460520031,0.9240651146351517,0.8849321946566266,0.8228239554496881,0.828225668952344,0.900490315591239,0.8419655963993554,0.8646253757951546,0.8978358898887133,0.8476125710666491,
3.2388663967611335,0.8428668473598749,0.8880524674333575,0.8399336580511012,0.9264108572115836,0.886638091258961,0.8304095816861925,0.8325459382609751,0.9045581987198714,0.8460385380349782,0.8662607308707657,0.8994104785720273,0.8512537664220308,
3.225806451612903,0.8461523215668091,0.8883753239305477,0.8392868521785934,0.9264669441010012,0.8857675565456693,0.8242741807665236,0.8342265968763631,0.9028396290061422,0.8467462221502355,0.8648060956300259,0.9029743923891392,0.8512273679557765,
3.2128514056224895,0.8422007345389453,0.8906847897027548,0.8403899564825975,0.9255780238045173,0.8869336821771932,0.8248452874604105,0.834411326077383,0.9056889063138519,0.8448068452961461,0.865444266712066,0.9010368540321996,0.8494556925486316,
3.2,0.8382868590961685,0.892073081770654,0.8391360151119158,0.9276624635963993,0.8889843377278484,0.8269676970828238,0.8361966019284927,0.9066957923105691,0.8425548218957172,0.8662412190845639,0.9026989327657094,0.8467229419550719,
3.187250996015936,0.8405158866956803,0.8907627526880058,0.832844709416371,0.926421770073038,0.8871999348545564,0.8224792811352529,0.832058590957589,0.902555595843396,0.8431315265382641,0.8649108496395836,0.9029687602973728,0.8490374932074389,
3.1746031746031744,0.8409619717960933,0.8910205125900965,0.8377181603433097,0.9279979568633913,0.889392908264078,0.8248715291647952,0.8352452245848422,0.9059046986347418,0.8451184863656561,0.8666074256111712,0.9051476965634627,0.852660624208163,
3.1620553359683794,0.8419573819682927,0.8886536277411924,0.8385519816281977,0.9271709946297111,0.8893961227901412,0.8293245159359591,0.8331960051908864,0.9060871285481477,0.845962891355822,0.8676120833379045,0.9040865083210509,0.8511043172216972,
3.149606299212598,0.8408835411967226,0.8940331251019135,0.8410337960858894,0.9262881246050725,0.8876059697790477,0.829156401834197,0.8356977166343615,0.9045897238153028,0.8440039984346356,0.8671588567654365,0.9048667066910905,0.8562917025275153,
3.1372549019607843,0.8448111105176247,0.8968367918917746,0.8457883596425305,0.928498509757184,0.8898355113378928,0.8274392824769328,0.8390028502093352,0.9075256248841443,0.8470507790113708,0.8698647408079593,0.9061125863168371,0.853040609395674,
3.125,0.8408450605269392,0.8910933404815207,0.8402217078001497,0.9292457131432934,0.8915969564588382,0.8314099276571393,0.8388648862435543,0.9074675990073974,0.848578270572751,0.8672552965756188,0.9084286678375144,0.8549753647764389,
